73.796387	52.187500	73.796387
78.688965	59.118652	78.688965
73.796387	51.372070	73.796387
73.796387	48.518066	73.796387
78.688965	50.964355	78.688965
85.620117	46.887207	85.620117
97.851562	48.110352	97.851562
108.859863	47.294922	108.859863
104.375000	53.002930	104.375000
95.405273	51.372070	95.405273
88.066406	60.341797	88.066406
87.250977	52.595215	87.250977
86.435547	30.986328	86.435547
97.036133	18.347168	97.036133
97.443848	8.562012	97.443848
103.967285	12.231445	103.967285
112.937012	18.347168	112.937012
110.898438	33.432617	110.898438
114.567871	37.102051	114.567871
128.022461	49.333496	128.022461
129.653320	59.934082	129.653320
131.691895	67.680664	131.691895
125.168457	73.796387	125.168457
116.606445	91.328125	116.606445
119.052734	109.675293	119.052734
121.499023	107.229004	121.499023
144.331055	96.628418	144.331055
158.601074	81.135254	158.601074
165.939941	77.058105	165.939941
154.523926	83.173828	154.523926
141.477051	88.474121	141.477051
143.923340	110.490723	143.923340
155.339355	108.452148	155.339355
165.939941	110.490723	165.939941
167.978516	111.713867	167.978516
181.025391	116.198730	181.025391
185.510254	125.576172	185.510254
187.548828	137.807617	187.548828
196.518555	153.708496	196.518555
201.003418	167.978516	201.003418
208.750000	179.394531	208.750000
206.711426	183.063965	206.711426
212.011719	184.287109	212.011719
212.419434	183.063965	212.419434
213.642578	184.694824	213.642578
212.419434	194.479980	212.419434
208.750000	197.333984	208.750000
207.526855	199.372559	207.526855
218.942871	191.625977	218.942871
231.582031	207.119141	231.582031
233.620605	223.427734	233.620605
231.174316	232.805176	231.174316
224.243164	241.774902	224.243164
216.496582	254.821777	216.496582
224.243164	273.984375	224.243164
224.243164	282.954102	224.243164
218.535156	291.923828	218.535156
223.020020	286.623535	223.020020
225.466309	286.623535	225.466309
234.843750	285.808105	234.843750
240.959473	282.954102	240.959473
240.551758	291.108398	240.551758
236.882324	303.747559	236.882324
229.135742	304.155273	229.135742
229.951172	313.125000	229.951172
235.251465	332.695312	235.251465
241.774902	343.703613	241.774902
230.766602	349.003906	230.766602
220.981445	350.227051	220.981445
223.020020	360.419922	223.020020
228.320312	369.389648	228.320312
219.758301	380.805664	219.758301
210.788574	395.891113	210.788574
199.780273	390.998535	199.780273
196.518555	402.006836	196.518555
195.703125	405.268555	195.703125
200.595703	400.783691	200.595703
199.780273	392.221680	199.780273
192.849121	399.152832	192.849121
190.810547	395.891113	190.810547
191.625977	402.006836	191.625977
192.441406	410.161133	192.441406
194.887695	414.238281	194.887695
202.634277	429.323730	202.634277
193.664551	439.516602	193.664551
183.063965	454.194336	183.063965
185.510254	461.940918	185.510254
177.763672	471.726074	177.763672
171.647949	468.464355	171.647949
174.909668	461.533203	174.909668
176.948242	461.125488	176.948242
181.025391	460.310059	181.025391
188.771973	449.709473	188.771973
185.102539	474.172363	185.102539
173.686523	484.772949	173.686523
162.678223	479.472656	162.678223
163.085937	473.764648	163.085937
176.132812	473.764648	176.132812
187.141113	466.833496	187.141113
187.956543	459.086914	187.956543
-225.058594	1.630859	-225.058594
-226.689453	-1.223145	-226.689453
-231.174316	0.815430	-231.174316
-233.212891	1.630859	-233.212891
-239.328613	10.600586	-239.328613
-245.852051	16.308594	-245.852051
-251.152344	22.424316	-251.152344
-261.752930	18.347168	-261.752930
-265.422363	27.724609	-265.422363
-269.499512	21.201172	-269.499512
-273.168945	17.124023	-273.168945
-271.945801	17.124023	-271.945801
-275.615234	10.600586	-275.615234
-281.730957	9.377441	-281.730957
-282.954102	5.300293	-282.954102
-284.584961	11.416016	-284.584961
-290.700684	9.377441	-290.700684
-293.146973	9.377441	-293.146973
-296.000977	16.308594	-296.000977
-303.339844	19.570313	-303.339844
-300.485840	25.686035	-300.485840
-303.747559	30.986328	-303.747559
-303.339844	41.586914	-303.339844
-309.455566	37.509766	-309.455566
-313.940430	39.548340	-313.940430
-316.794434	35.878906	-316.794434
-323.725586	28.132324	-323.725586
-322.910156	24.055176	-322.910156
-325.356445	22.832031	-325.356445
-324.948730	18.754883	-324.948730
-326.171875	14.270020	-326.171875
-326.987305	19.978027	-326.987305
-331.879883	18.347168	-331.879883
-335.957031	21.201172	-335.957031
-337.995605	28.132324	-337.995605
-337.587891	28.947754	-337.587891
-340.849609	33.432617	-340.849609
-339.626465	45.256348	-339.626465
-345.334473	53.002930	-345.334473
-345.334473	44.440918	-345.334473
-346.149902	39.548340	-346.149902
-349.411621	36.694336	-349.411621
-350.227051	34.655762	-350.227051
-353.081055	33.024902	-353.081055
-355.119629	30.986328	-355.119629
-353.081055	26.909180	-353.081055
-352.265625	23.647461	-352.265625
-350.227051	28.540039	-350.227051
-354.711914	30.986328	-354.711914
-357.973633	35.878906	-357.973633
-360.827637	39.548340	-360.827637
-362.050781	43.625488	-362.050781
-361.235352	44.440918	-361.235352
-363.681641	46.887207	-363.681641
-360.827637	50.556641	-360.827637
-365.312500	43.625488	-365.312500
-362.050781	40.363770	-362.050781
-361.235352	41.179199	-361.235352
-358.789062	34.655762	-358.789062
-353.488770	35.878906	-353.488770
-353.081055	31.394043	-353.081055
-356.342773	25.278320	-356.342773
-357.158203	22.424316	-357.158203
-355.527344	28.947754	-355.527344
-352.265625	30.578613	-352.265625
-353.896484	33.432617	-353.896484
-354.711914	34.655762	-354.711914
-359.196777	34.248047	-359.196777
-359.196777	41.586914	-359.196777
-364.089355	39.548340	-364.089355
-362.050781	45.256348	-362.050781
-362.050781	36.286621	-362.050781
-360.827637	32.617187	-360.827637
-354.711914	31.801758	-354.711914
-358.789062	28.947754	-358.789062
-351.857910	29.355469	-351.857910
-355.119629	28.947754	-355.119629
-355.119629	28.947754	-355.119629
-353.896484	23.239746	-353.896484
-351.857910	29.355469	-351.857910
-352.265625	26.909180	-352.265625
-349.411621	28.947754	-349.411621
-347.373047	32.617187	-347.373047
-347.373047	35.878906	-347.373047
-345.334473	36.286621	-345.334473
-343.295898	44.440918	-343.295898
-342.888184	48.110352	-342.888184
-344.519043	39.548340	-344.519043
-344.519043	42.402344	-344.519043
-345.334473	36.694336	-345.334473
-345.742187	28.947754	-345.742187
-340.849609	32.209473	-340.849609
-343.703613	27.724609	-343.703613
-340.441895	28.132324	-340.441895
-341.257324	22.832031	-341.257324
-336.772461	28.947754	-336.772461
-337.180176	24.870605	-337.180176
-337.587891	24.870605	-337.587891
-338.811035	31.801758	-338.811035
-335.957031	29.763184	-335.957031
-335.141602	35.878906	-335.141602
-333.918457	37.509766	-333.918457
-328.618164	40.363770	-328.618164
-333.510742	35.471191	-333.510742
-332.287598	35.471191	-332.287598
-327.802734	34.655762	-327.802734
-327.802734	32.209473	-327.802734
-326.987305	28.947754	-326.987305
-327.395020	24.870605	-327.395020
-327.802734	20.793457	-327.802734
-328.618164	17.124023	-328.618164
-327.802734	18.347168	-327.802734
-320.056152	17.124023	-320.056152
-322.910156	23.239746	-322.910156
-316.386719	25.278320	-316.386719
-318.833008	29.355469	-318.833008
-320.871582	30.986328	-320.871582
-319.240723	37.509766	-319.240723
-313.940430	39.548340	-313.940430
-313.532715	35.063477	-313.532715
-311.086426	32.617187	-311.086426
-309.863281	31.801758	-309.863281
-305.786133	26.909180	-305.786133
-304.155273	24.870605	-304.155273
-308.640137	19.978027	-308.640137
-304.970703	12.231445	-304.970703
-305.786133	13.046875	-305.786133
-300.893555	24.055176	-300.893555
-298.039551	17.124023	-298.039551
-298.039551	19.978027	-298.039551
-295.185547	21.608887	-295.185547
-298.039551	27.724609	-298.039551
-299.262695	30.986328	-299.262695
-296.408691	38.732910	-296.408691
-298.854980	39.548340	-298.854980
-298.039551	39.548340	-298.039551
-298.039551	36.694336	-298.039551
-296.408691	36.286621	-296.408691
-289.069824	31.801758	-289.069824
-287.438965	34.655762	-287.438965
-283.769531	32.617187	-283.769531
-282.138672	30.578613	-282.138672
-284.584961	26.909180	-284.584961
-287.438965	31.394043	-287.438965
-288.662109	29.763184	-288.662109
-282.954102	35.063477	-282.954102
-285.400391	37.509766	-285.400391
-283.769531	38.732910	-283.769531
-281.323242	41.179199	-281.323242
-279.284668	45.256348	-279.284668
-275.207520	50.556641	-275.207520
-273.576660	43.625488	-273.576660
-270.722656	44.440918	-270.722656
-268.684082	43.625488	-268.684082
-265.830078	40.363770	-265.830078
-263.791504	38.325195	-263.791504
-265.830078	35.471191	-265.830078
-265.830078	26.909180	-265.830078
-263.383789	27.316895	-263.383789
-259.714355	32.617187	-259.714355
-257.268066	31.801758	-257.268066
-256.860352	34.655762	-256.860352
-256.452637	39.956055	-256.452637
-258.083496	39.548340	-258.083496
-252.375488	48.518066	-252.375488
-252.783203	48.925781	-252.783203
-251.152344	47.294922	-251.152344
-251.967773	44.440918	-251.967773
-255.229492	41.586914	-255.229492
-256.452637	43.625488	-256.452637
-255.229492	41.179199	-255.229492
-252.783203	35.878906	-252.783203
-253.598633	35.471191	-253.598633
-247.482910	29.763184	-247.482910
-248.298340	24.870605	-248.298340
-247.075195	33.024902	-247.075195
-244.221191	34.655762	-244.221191
-240.959473	37.509766	-240.959473
-245.444336	39.140625	-245.444336
-243.813477	41.179199	-243.813477
-240.959473	39.548340	-240.959473
-239.328613	43.625488	-239.328613
-240.144043	46.479492	-240.144043
-239.328613	36.694336	-239.328613
-238.920898	40.363770	-238.920898
-236.474609	35.063477	-236.474609
-236.882324	31.394043	-236.882324
-231.989746	31.801758	-231.989746
-229.951172	31.394043	-229.951172
-231.582031	30.986328	-231.582031
-227.504883	28.947754	-227.504883
-229.135742	36.694336	-229.135742
-226.689453	30.986328	-226.689453
-227.504883	38.325195	-227.504883
-230.766602	40.771484	-230.766602
-229.951172	42.810059	-229.951172
-229.543457	46.479492	-229.543457
-225.466309	47.294922	-225.466309
-224.650879	50.964355	-224.650879
-226.689453	46.887207	-226.689453
-223.835449	48.110352	-223.835449
-224.650879	41.586914	-224.650879
-221.796875	39.140625	-221.796875
-218.942871	37.509766	-218.942871
-215.681152	37.509766	-215.681152
-214.050293	32.209473	-214.050293
-213.234863	26.909180	-213.234863
-207.119141	30.986328	-207.119141
-206.711426	31.801758	-206.711426
-205.895996	36.694336	-205.895996
-207.934570	35.878906	-207.934570
-203.857422	36.694336	-203.857422
-204.672852	42.810059	-204.672852
-201.818848	47.294922	-201.818848
-197.741699	47.294922	-197.741699
-200.595703	43.625488	-200.595703
-203.449707	45.664062	-203.449707
-203.041992	34.655762	-203.041992
-199.780273	34.248047	-199.780273
-196.926270	28.947754	-196.926270
-195.295410	30.986328	-195.295410
-189.995117	23.239746	-189.995117
-192.033691	22.424316	-192.033691
-189.179687	24.055176	-189.179687
-188.364258	24.055176	-188.364258
-181.433105	28.132324	-181.433105
-184.287109	36.694336	-184.287109
-184.287109	36.694336	-184.287109
-188.771973	41.179199	-188.771973
-185.102539	44.848633	-185.102539
-187.141113	49.741211	-187.141113
-187.548828	43.217773	-187.548828
-185.102539	46.479492	-185.102539
-185.102539	40.363770	-185.102539
-181.025391	32.617187	-181.025391
-175.725098	31.801758	-175.725098
-175.317383	25.686035	-175.317383
-173.686523	20.385742	-173.686523
-172.463379	16.308594	-172.463379
-168.793945	23.239746	-168.793945
-170.017090	26.501465	-170.017090
-167.163086	28.132324	-167.163086
-167.978516	33.024902	-167.978516
-167.570801	35.063477	-167.570801
-164.716797	37.102051	-164.716797
-161.455078	40.771484	-161.455078
-164.309082	43.217773	-164.309082
-161.455078	40.363770	-161.455078
-164.309082	42.402344	-164.309082
-163.493652	40.363770	-163.493652
-160.231934	37.509766	-160.231934
-159.824219	32.209473	-159.824219
-159.008789	32.617187	-159.008789
-155.747070	24.870605	-155.747070
-156.970215	18.754883	-156.970215
-148.815918	26.909180	-148.815918
-148.815918	20.385742	-148.815918
-150.446777	24.055176	-150.446777
-148.000488	25.686035	-148.000488
-147.592773	28.132324	-147.592773
-148.408203	34.655762	-148.408203
-144.738770	37.102051	-144.738770
-145.554199	40.771484	-145.554199
-143.515625	33.024902	-143.515625
-148.000488	37.509766	-148.000488
-146.777344	33.432617	-146.777344
-146.777344	35.063477	-146.777344
-147.185059	28.132324	-147.185059
-140.661621	24.870605	-140.661621
-139.030762	16.308594	-139.030762
-137.399902	12.639160	-137.399902
-136.992188	18.754883	-136.992188
-131.284180	22.424316	-131.284180
-131.284180	21.201172	-131.284180
-124.760742	24.870605	-124.760742
-128.837891	28.947754	-128.837891
-128.022461	35.063477	-128.022461
-128.837891	41.179199	-128.837891
-124.353027	42.402344	-124.353027
-119.460449	38.732910	-119.460449
-118.645020	39.548340	-118.645020
-113.752441	37.509766	-113.752441
-111.713867	33.432617	-111.713867
-109.267578	34.655762	-109.267578
-110.490723	28.947754	-110.490723
-118.645020	19.570313	-118.645020
-116.606445	14.677734	-116.606445
-117.829590	12.231445	-117.829590
-113.344727	4.892578	-113.344727
-113.752441	2.854004	-113.752441
-110.490723	0.815430	-110.490723
-107.636719	5.300293	-107.636719
-103.559570	7.338867	-103.559570
-101.520996	10.600586	-101.520996
-100.705566	11.008301	-100.705566
-97.851562	8.154297	-97.851562
-101.113281	3.669434	-101.113281
-94.589844	0.815430	-94.589844
-95.812988	-2.446289	-95.812988
-93.774414	-4.077148	-93.774414
-90.512695	-11.416016	-90.512695
-84.804687	-11.008301	-84.804687
-84.804687	-20.793457	-84.804687
-79.096680	-24.055176	-79.096680
-79.912109	-24.462891	-79.912109
-77.873535	-19.978027	-77.873535
-75.834961	-16.716309	-75.834961
-79.912109	-15.493164	-79.912109
-76.650391	-16.716309	-76.650391
-77.058105	-16.716309	-77.058105
-75.427246	-17.531738	-75.427246
-77.465820	-29.355469	-77.465820
-71.350098	-28.540039	-71.350098
-68.088379	-24.462891	-68.088379
-70.534668	-28.132324	-70.534668
-69.311523	-24.462891	-69.311523
-64.826660	-28.132324	-64.826660
-66.865234	-28.540039	-66.865234
-67.272949	-29.355469	-67.272949
-61.157227	-28.947754	-61.157227
-66.457520	-31.394043	-66.457520
-61.157227	-29.763184	-61.157227
-63.195801	-23.647461	-63.195801
-64.826660	-22.832031	-64.826660
-59.526367	-22.424316	-59.526367
-61.157227	-18.754883	-61.157227
-62.380371	-17.531738	-62.380371
-65.234375	-20.793457	-65.234375
-61.564941	-18.347168	-61.564941
-66.457520	-18.754883	-66.457520
-59.118652	-17.531738	-59.118652
-58.710937	-20.793457	-58.710937
-56.264648	-23.647461	-56.264648
-59.526367	-34.655762	-59.526367
-58.303223	-33.840332	-58.303223
-57.080078	-30.986328	-57.080078
-55.856934	-28.132324	-55.856934
-55.449219	-26.501465	-55.449219
-55.041504	-20.385742	-55.041504
-53.818359	-20.793457	-53.818359
-50.964355	-15.900879	-50.964355
-52.187500	-11.416016	-52.187500
-51.372070	-7.746582	-51.372070
-50.964355	-11.416016	-50.964355
-54.633789	-11.008301	-54.633789
-53.410645	-8.154297	-53.410645
-50.556641	-14.677734	-50.556641
-51.779785	-13.046875	-51.779785
-51.372070	-19.570313	-51.372070
-48.925781	-24.462891	-48.925781
-48.518066	-27.316895	-48.518066
-45.256348	-22.424316	-45.256348
-42.810059	-24.055176	-42.810059
-45.664062	-17.531738	-45.664062
-43.625488	-16.308594	-43.625488
-44.033203	-16.716309	-44.033203
-43.625488	-9.785156	-43.625488
-41.586914	-3.261719	-41.586914
-42.810059	0.407715	-42.810059
-40.363770	-6.931152	-40.363770
-45.256348	-8.154297	-45.256348
-43.625488	-9.785156	-43.625488
-43.625488	-12.639160	-43.625488
-43.625488	-11.823730	-43.625488
-40.363770	-13.454590	-40.363770
-39.956055	-14.677734	-39.956055
-38.732910	-22.424316	-38.732910
-35.878906	-14.677734	-35.878906
-36.286621	-14.677734	-36.286621
-33.840332	-15.900879	-33.840332
-34.655762	-12.639160	-34.655762
-35.878906	-10.600586	-35.878906
-35.878906	-5.708008	-35.878906
-41.179199	-3.669434	-41.179199
-37.102051	4.892578	-37.102051
-38.732910	-4.484863	-38.732910
-36.694336	3.669434	-36.694336
-32.617187	-3.261719	-32.617187
-33.840332	-5.708008	-33.840332
-30.986328	-11.008301	-30.986328
-31.801758	-11.416016	-31.801758
-23.647461	-11.823730	-23.647461
-26.501465	-15.900879	-26.501465
-21.201172	-9.785156	-21.201172
-19.162598	-13.046875	-19.162598
-20.385742	-11.416016	-20.385742
-24.462891	-7.746582	-24.462891
-26.909180	-6.931152	-26.909180
-25.686035	-2.446289	-25.686035
-28.947754	4.077148	-28.947754
-25.686035	5.708008	-25.686035
-28.540039	-2.446289	-28.540039
-22.832031	-0.815430	-22.832031
-24.870605	-5.708008	-24.870605
-17.531738	-5.708008	-17.531738
-16.716309	-8.969727	-16.716309
-17.124023	-8.969727	-17.124023
-20.385742	-14.677734	-20.385742
-19.162598	-15.900879	-19.162598
-18.347168	-8.969727	-18.347168
-13.046875	-8.969727	-13.046875
-10.600586	-4.484863	-10.600586
-8.969727	-4.484863	-8.969727
-11.008301	-4.892578	-11.008301
-13.454590	-3.261719	-13.454590
-11.416016	-7.746582	-11.416016
-15.085449	-1.630859	-15.085449
-15.085449	-11.416016	-15.085449
-14.270020	-4.484863	-14.270020
-14.270020	-4.077148	-14.270020
-8.969727	-6.523437	-8.969727
-9.785156	-6.523437	-9.785156
-11.008301	-7.338867	-11.008301
-8.969727	-9.785156	-8.969727
-6.931152	-11.823730	-6.931152
-9.785156	-0.815430	-9.785156
-8.154297	-5.300293	-8.154297
-8.154297	-5.708008	-8.154297
-8.154297	-6.523437	-8.154297
-9.377441	-0.815430	-9.377441
-9.785156	2.854004	-9.785156
-4.484863	8.154297	-4.484863
-4.892578	12.231445	-4.892578
-4.892578	2.854004	-4.892578
-4.077148	5.300293	-4.077148
-4.077148	2.854004	-4.077148
-4.892578	2.446289	-4.892578
-4.484863	4.484863	-4.484863
-5.708008	4.077148	-5.708008
-6.523437	-1.223145	-6.523437
-1.630859	-4.892578	-1.630859
0.000000	-1.223145	0.000000
0.000000	-3.261719	0.000000
-3.261719	3.669434	-3.261719
-3.261719	5.300293	-3.261719
-1.223145	10.600586	-1.223145
-2.854004	17.124023	-2.854004
-1.223145	17.531738	-1.223145
0.000000	17.124023	0.000000
1.630859	10.600586	1.630859
4.077148	9.377441	4.077148
4.484863	5.708008	4.484863
3.669434	2.446289	3.669434
6.931152	1.630859	6.931152
4.077148	-0.407715	4.077148
5.708008	-0.407715	5.708008
9.377441	-4.077148	9.377441
10.600586	0.407715	10.600586
11.823730	-2.446289	11.823730
8.154297	2.446289	8.154297
9.377441	6.931152	9.377441
11.823730	9.377441	11.823730
8.969727	11.416016	8.969727
7.338867	19.978027	7.338867
8.562012	23.239746	8.562012
8.154297	10.600586	8.154297
5.708008	11.008301	5.708008
7.338867	8.562012	7.338867
5.708008	8.562012	5.708008
9.377441	9.785156	9.377441
14.270020	8.562012	14.270020
15.493164	1.630859	15.493164
12.231445	-2.446289	12.231445
15.493164	4.484863	15.493164
16.308594	0.815430	16.308594
14.677734	4.892578	14.677734
15.493164	7.338867	15.493164
15.493164	11.008301	15.493164
14.677734	15.900879	14.677734
16.308594	24.055176	16.308594
18.347168	21.608887	18.347168
15.085449	18.347168	15.085449
15.900879	15.493164	15.900879
14.677734	15.493164	14.677734
17.531738	12.231445	17.531738
19.162598	13.046875	19.162598
21.608887	6.931152	21.608887
23.647461	0.815430	23.647461
24.462891	-4.484863	24.462891
26.909180	4.077148	26.909180
26.909180	4.484863	26.909180
28.947754	4.484863	28.947754
27.724609	7.746582	27.724609
28.132324	16.308594	28.132324
25.278320	16.716309	25.278320
25.686035	25.686035	25.686035
22.424316	23.647461	22.424316
15.900879	17.124023	15.900879
14.677734	18.754883	14.677734
18.754883	11.008301	18.754883
21.201172	7.338867	21.201172
26.501465	7.746582	26.501465
32.617187	4.484863	32.617187
30.578613	3.261719	30.578613
31.394043	2.854004	31.394043
32.209473	4.892578	32.209473
31.394043	1.630859	31.394043
33.024902	4.077148	33.024902
35.063477	6.931152	35.063477
30.986328	7.338867	30.986328
35.878906	15.900879	35.878906
32.617187	20.793457	32.617187
30.578613	22.424316	30.578613
30.578613	15.900879	30.578613
25.278320	19.162598	25.278320
29.763184	16.308594	29.763184
26.501465	13.454590	26.501465
30.578613	11.008301	30.578613
33.024902	4.484863	33.024902
34.248047	-1.223145	34.248047
34.248047	-4.484863	34.248047
38.325195	1.630859	38.325195
35.878906	-0.815430	35.878906
34.248047	0.815430	34.248047
31.801758	5.300293	31.801758
34.248047	7.746582	34.248047
33.024902	7.746582	33.024902
37.102051	15.085449	37.102051
36.694336	11.008301	36.694336
37.102051	8.969727	37.102051
36.286621	8.562012	36.286621
34.248047	9.377441	34.248047
38.325195	11.416016	38.325195
37.509766	11.008301	37.509766
34.248047	10.600586	34.248047
35.471191	7.746582	35.471191
36.286621	6.931152	36.286621
37.509766	11.416016	37.509766
41.586914	6.931152	41.586914
42.402344	10.600586	42.402344
39.956055	12.231445	39.956055
37.509766	9.377441	37.509766
39.140625	13.046875	39.140625
36.286621	19.162598	36.286621
37.102051	19.570313	37.102051
40.771484	17.124023	40.771484
39.956055	12.639160	39.956055
36.286621	15.493164	36.286621
39.140625	15.493164	39.140625
36.694336	16.308594	36.694336
35.878906	14.677734	35.878906
40.363770	10.600586	40.363770
38.325195	5.708008	38.325195
41.179199	6.523437	41.179199
39.956055	3.669434	39.956055
39.140625	7.746582	39.140625
39.140625	11.416016	39.140625
38.732910	17.124023	38.732910
42.810059	17.531738	42.810059
47.294922	25.686035	47.294922
47.702637	23.647461	47.702637
46.887207	25.686035	46.887207
44.033203	20.385742	44.033203
44.440918	17.531738	44.440918
44.033203	17.531738	44.033203
43.217773	19.162598	43.217773
43.217773	13.454590	43.217773
40.363770	5.708008	40.363770
42.402344	3.261719	42.402344
47.702637	4.484863	47.702637
49.741211	4.077148	49.741211
52.187500	7.746582	52.187500
50.556641	12.639160	50.556641
47.702637	12.231445	47.702637
48.518066	13.046875	48.518066
46.479492	22.424316	46.479492
49.741211	24.870605	49.741211
42.810059	19.978027	42.810059
47.294922	19.978027	47.294922
42.810059	15.493164	42.810059
48.518066	12.231445	48.518066
48.110352	9.377441	48.110352
48.110352	11.416016	48.110352
49.741211	8.969727	49.741211
49.741211	5.300293	49.741211
50.964355	12.231445	50.964355
48.518066	7.746582	48.518066
55.041504	11.416016	55.041504
54.633789	13.046875	54.633789
53.818359	15.493164	53.818359
58.303223	15.493164	58.303223
50.556641	17.531738	50.556641
51.372070	22.424316	51.372070
48.110352	17.124023	48.110352
45.664062	16.716309	45.664062
48.925781	16.308594	48.925781
49.333496	16.308594	49.333496
49.741211	13.454590	49.741211
50.964355	12.639160	50.964355
51.779785	8.154297	51.779785
53.002930	5.300293	53.002930
55.041504	14.270020	55.041504
53.002930	8.969727	53.002930
55.449219	4.892578	55.449219
51.779785	11.416016	51.779785
53.002930	10.600586	53.002930
47.294922	12.639160	47.294922
51.372070	19.162598	51.372070
53.002930	19.978027	53.002930
51.779785	17.124023	51.779785
54.633789	19.570313	54.633789
51.779785	12.231445	51.779785
55.856934	15.085449	55.856934
55.856934	9.377441	55.856934
53.002930	8.562012	53.002930
56.672363	1.630859	56.672363
59.118652	4.484863	59.118652
59.118652	15.085449	59.118652
60.341797	11.008301	60.341797
59.934082	7.746582	59.934082
61.157227	6.931152	61.157227
58.303223	8.562012	58.303223
58.303223	8.562012	58.303223
59.118652	14.677734	59.118652
59.118652	20.793457	59.118652
55.041504	14.677734	55.041504
55.041504	14.270020	55.041504
49.741211	15.493164	49.741211
55.449219	12.639160	55.449219
53.002930	10.600586	53.002930
55.856934	8.562012	55.856934
57.487793	3.669434	57.487793
59.934082	-5.708008	59.934082
63.195801	5.300293	63.195801
61.564941	-0.815430	61.564941
61.157227	6.931152	61.157227
61.157227	7.746582	61.157227
62.788086	9.377441	62.788086
64.418945	15.085449	64.418945
67.272949	20.793457	67.272949
64.826660	24.462891	64.826660
62.788086	19.162598	62.788086
60.749512	19.162598	60.749512
55.041504	18.347168	55.041504
61.564941	15.493164	61.564941
59.934082	15.493164	59.934082
63.603516	16.308594	63.603516
63.603516	11.823730	63.603516
61.157227	8.562012	61.157227
63.603516	11.416016	63.603516
64.826660	9.377441	64.826660
68.496094	12.639160	68.496094
67.680664	18.347168	67.680664
67.680664	20.385742	67.680664
64.011230	19.162598	64.011230
63.603516	25.686035	63.603516
61.157227	25.686035	61.157227
61.157227	24.870605	61.157227
61.157227	26.501465	61.157227
65.234375	25.686035	65.234375
68.496094	26.909180	68.496094
64.011230	21.201172	64.011230
68.903809	19.162598	68.903809
68.496094	10.600586	68.496094
66.865234	10.600586	66.865234
66.457520	19.162598	66.457520
64.826660	17.531738	64.826660
67.272949	19.570313	67.272949
69.311523	19.978027	69.311523
72.980957	22.424316	72.980957
69.311523	28.132324	69.311523
68.903809	34.655762	68.903809
70.534668	35.063477	70.534668
67.680664	27.724609	67.680664
71.757812	32.617187	71.757812
67.680664	20.385742	67.680664
72.165527	20.793457	72.165527
74.611816	16.308594	74.611816
72.165527	17.531738	72.165527
73.388672	12.639160	73.388672
72.980957	14.677734	72.980957
73.388672	19.162598	73.388672
78.688965	19.978027	78.688965
78.688965	25.686035	78.688965
79.504395	28.947754	79.504395
76.242676	28.947754	76.242676
77.873535	29.355469	77.873535
72.573242	33.432617	72.573242
68.496094	34.655762	68.496094
63.603516	31.394043	63.603516
61.564941	28.947754	61.564941
62.788086	28.132324	62.788086
61.564941	24.870605	61.564941
68.496094	21.608887	68.496094
68.496094	24.462891	68.496094
71.350098	18.347168	71.350098
70.534668	15.085449	70.534668
75.427246	16.716309	75.427246
74.611816	18.754883	74.611816
75.427246	21.608887	75.427246
74.611816	26.909180	74.611816
75.834961	22.424316	75.834961
72.573242	26.909180	72.573242
70.942383	31.801758	70.942383
69.311523	33.024902	69.311523
67.680664	29.355469	67.680664
65.642090	33.024902	65.642090
65.642090	27.724609	65.642090
67.272949	26.909180	67.272949
69.311523	24.870605	69.311523
71.757812	24.870605	71.757812
70.942383	20.793457	70.942383
71.757812	14.677734	71.757812
68.903809	18.347168	68.903809
69.311523	23.239746	69.311523
72.573242	27.724609	72.573242
70.942383	33.432617	70.942383
72.165527	29.763184	72.165527
70.942383	31.801758	70.942383
70.942383	32.209473	70.942383
69.311523	36.694336	69.311523
67.272949	31.801758	67.272949
64.826660	33.432617	64.826660
63.195801	26.501465	63.195801
64.011230	22.832031	64.011230
69.311523	23.239746	69.311523
73.388672	19.162598	73.388672
74.611816	15.493164	74.611816
73.388672	13.046875	73.388672
75.427246	15.900879	75.427246
74.611816	17.124023	74.611816
76.650391	26.501465	76.650391
72.980957	25.278320	72.980957
77.465820	29.763184	77.465820
72.573242	28.947754	72.573242
73.796387	32.617187	73.796387
70.942383	29.355469	70.942383
68.496094	27.724609	68.496094
66.457520	26.909180	66.457520
68.088379	24.462891	68.088379
72.573242	25.686035	72.573242
75.427246	20.793457	75.427246
75.427246	19.162598	75.427246
75.427246	13.046875	75.427246
79.504395	8.969727	79.504395
81.135254	15.085449	81.135254
79.504395	12.639160	79.504395
80.319824	16.716309	80.319824
75.834961	19.570313	75.834961
76.242676	22.424316	76.242676
72.573242	24.055176	72.573242
71.757812	25.686035	71.757812
71.350098	26.909180	71.350098
69.719238	24.055176	69.719238
66.865234	23.647461	66.865234
68.496094	21.201172	68.496094
68.088379	20.793457	68.088379
65.234375	24.055176	65.234375
67.272949	26.501465	67.272949
69.311523	19.570313	69.311523
77.873535	19.978027	77.873535
78.688965	20.385742	78.688965
81.135254	16.716309	81.135254
79.504395	24.870605	79.504395
78.688965	27.316895	78.688965
77.465820	26.501465	77.465820
74.611816	31.801758	74.611816
76.242676	34.655762	76.242676
77.465820	37.509766	77.465820
76.650391	28.540039	76.650391
75.834961	30.986328	75.834961
70.942383	25.686035	70.942383
73.388672	26.909180	73.388672
75.427246	26.909180	75.427246
77.465820	23.239746	77.465820
78.688965	16.308594	78.688965
85.212402	14.677734	85.212402
86.435547	20.793457	86.435547
84.396973	18.347168	84.396973
83.581543	19.978027	83.581543
78.688965	24.870605	78.688965
80.727539	28.132324	80.727539
77.873535	29.763184	77.873535
77.465820	33.432617	77.465820
82.766113	34.248047	82.766113
79.912109	30.578613	79.912109
80.319824	28.540039	80.319824
79.504395	27.316895	79.504395
78.688965	21.201172	78.688965
79.504395	24.870605	79.504395
76.242676	19.978027	76.242676
76.650391	17.531738	76.650391
76.650391	18.754883	76.650391
77.465820	19.978027	77.465820
79.912109	17.124023	79.912109
82.358398	21.201172	82.358398
83.581543	25.686035	83.581543
82.766113	26.909180	82.766113
80.319824	30.578613	80.319824
73.796387	37.102051	73.796387
74.611816	38.732910	74.611816
76.650391	32.617187	76.650391
73.388672	34.248047	73.388672
76.650391	30.986328	76.650391
76.650391	29.355469	76.650391
84.396973	29.763184	84.396973
80.319824	23.239746	80.319824
81.542969	21.201172	81.542969
81.542969	17.124023	81.542969
84.396973	24.055176	84.396973
80.319824	16.716309	80.319824
85.620117	24.870605	85.620117
87.250977	24.870605	87.250977
83.581543	36.694336	83.581543
84.396973	32.209473	84.396973
86.435547	38.732910	86.435547
80.319824	39.140625	80.319824
80.727539	34.248047	80.727539
78.688965	33.432617	78.688965
81.135254	33.432617	81.135254
79.504395	30.986328	79.504395
85.620117	31.801758	85.620117
85.212402	29.763184	85.212402
86.435547	25.686035	86.435547
84.396973	25.686035	84.396973
87.250977	27.724609	87.250977
83.581543	29.763184	83.581543
84.396973	32.209473	84.396973
85.212402	30.986328	85.212402
83.989258	29.355469	83.989258
86.435547	33.024902	86.435547
83.173828	38.732910	83.173828
80.319824	35.471191	80.319824
81.135254	34.248047	81.135254
76.242676	33.432617	76.242676
74.611816	29.763184	74.611816
77.465820	31.801758	77.465820
79.504395	28.947754	79.504395
83.581543	28.132324	83.581543
83.581543	18.347168	83.581543
84.396973	16.308594	84.396973
85.212402	24.870605	85.212402
88.474121	22.832031	88.474121
85.212402	25.686035	85.212402
86.435547	27.724609	86.435547
83.581543	28.947754	83.581543
79.912109	34.655762	79.912109
76.650391	36.694336	76.650391
75.019531	39.140625	75.019531
75.427246	30.578613	75.427246
77.465820	32.209473	77.465820
80.727539	33.432617	80.727539
80.319824	24.462891	80.319824
87.250977	27.316895	87.250977
87.658691	24.055176	87.658691
88.474121	24.462891	88.474121
89.697266	24.870605	89.697266
90.920410	30.578613	90.920410
92.958984	25.278320	92.958984
89.289551	24.870605	89.289551
90.512695	29.763184	90.512695
89.289551	25.686035	89.289551
87.250977	29.763184	87.250977
85.620117	39.140625	85.620117
84.396973	45.256348	84.396973
82.766113	42.402344	82.766113
83.581543	42.402344	83.581543
85.212402	38.732910	85.212402
83.581543	37.509766	83.581543
82.766113	33.432617	82.766113
81.135254	39.956055	81.135254
82.358398	24.870605	82.358398
84.396973	31.801758	84.396973
84.804687	32.209473	84.804687
85.212402	34.248047	85.212402
83.989258	38.732910	83.989258
86.435547	41.586914	86.435547
84.396973	42.810059	84.396973
83.989258	44.440918	83.989258
83.989258	45.256348	83.989258
85.620117	45.256348	85.620117
80.319824	41.179199	80.319824
83.581543	46.479492	83.581543
82.766113	39.548340	82.766113
80.727539	42.402344	80.727539
81.135254	32.209473	81.135254
81.135254	33.432617	81.135254
79.504395	25.278320	79.504395
82.766113	24.870605	82.766113
79.096680	29.763184	79.096680
81.542969	29.763184	81.542969
76.650391	32.617187	76.650391
78.688965	37.509766	78.688965
82.766113	34.248047	82.766113
84.396973	38.732910	84.396973
85.620117	42.810059	85.620117
87.250977	44.440918	87.250977
83.989258	44.440918	83.989258
84.396973	46.479492	84.396973
79.504395	38.732910	79.504395
83.173828	40.363770	83.173828
80.319824	32.617187	80.319824
80.319824	22.424316	80.319824
76.650391	17.531738	76.650391
79.504395	16.716309	79.504395
83.989258	19.570313	83.989258
85.212402	22.424316	85.212402
84.804687	31.394043	84.804687
87.250977	32.617187	87.250977
82.766113	35.063477	82.766113
81.135254	39.140625	81.135254
78.688965	39.548340	78.688965
79.504395	38.325195	79.504395
78.688965	33.024902	78.688965
80.319824	37.102051	80.319824
80.319824	32.617187	80.319824
81.135254	34.248047	81.135254
81.135254	32.617187	81.135254
80.319824	25.686035	80.319824
83.581543	24.055176	83.581543
78.688965	23.647461	78.688965
75.834961	26.909180	75.834961
73.388672	24.055176	73.388672
73.388672	23.647461	73.388672
70.534668	26.909180	70.534668
72.165527	30.578613	72.165527
72.980957	29.763184	72.980957
77.465820	40.363770	77.465820
79.504395	40.363770	79.504395
77.465820	36.694336	77.465820
77.058105	41.179199	77.058105
77.058105	40.363770	77.058105
76.242676	30.986328	76.242676
75.427246	32.209473	75.427246
77.058105	28.132324	77.058105
77.058105	20.793457	77.058105
80.319824	19.978027	80.319824
79.504395	28.132324	79.504395
81.542969	24.462891	81.542969
77.873535	25.686035	77.873535
79.912109	27.724609	79.912109
73.388672	29.763184	73.388672
76.650391	31.801758	76.650391
74.611816	35.878906	74.611816
77.058105	36.286621	77.058105
74.611816	27.724609	74.611816
75.427246	28.947754	75.427246
77.465820	25.686035	77.465820
80.727539	30.986328	80.727539
77.465820	29.763184	77.465820
78.688965	29.355469	78.688965
77.058105	15.900879	77.058105
79.096680	19.162598	79.096680
76.650391	22.424316	76.650391
79.912109	24.870605	79.912109
82.358398	24.870605	82.358398
81.542969	29.355469	81.542969
78.688965	28.947754	78.688965
81.135254	29.763184	81.135254
75.834961	35.878906	75.834961
75.427246	36.694336	75.427246
72.573242	29.355469	72.573242
74.611816	31.801758	74.611816
72.573242	29.763184	72.573242
75.834961	28.132324	75.834961
75.834961	28.947754	75.834961
79.504395	25.686035	79.504395
76.650391	15.085449	76.650391
79.096680	12.231445	79.096680
79.912109	19.162598	79.912109
76.650391	14.677734	76.650391
75.834961	21.201172	75.834961
74.611816	27.724609	74.611816
72.980957	26.501465	72.980957
72.980957	30.986328	72.980957
73.388672	31.801758	73.388672
76.650391	37.102051	76.650391
75.427246	33.024902	75.427246
74.611816	39.548340	74.611816
70.942383	35.471191	70.942383
68.496094	31.394043	68.496094
67.680664	28.540039	67.680664
71.350098	19.978027	71.350098
73.388672	10.600586	73.388672
74.611816	8.562012	74.611816
73.796387	15.493164	73.796387
74.611816	19.162598	74.611816
69.311523	19.978027	69.311523
70.942383	24.462891	70.942383
66.457520	24.870605	66.457520
70.942383	26.501465	70.942383
70.534668	29.355469	70.534668
68.496094	38.732910	68.496094
66.865234	32.209473	66.865234
68.903809	34.655762	68.903809
65.234375	27.724609	65.234375
66.457520	22.424316	66.457520
71.757812	22.832031	71.757812
71.757812	19.570313	71.757812
75.019531	15.493164	75.019531
79.504395	17.124023	79.504395
77.873535	23.647461	77.873535
81.135254	21.201172	81.135254
78.688965	23.647461	78.688965
78.688965	29.763184	78.688965
77.058105	31.801758	77.058105
73.796387	32.617187	73.796387
77.058105	39.548340	77.058105
77.465820	35.878906	77.465820
77.873535	31.394043	77.873535
70.942383	36.286621	70.942383
68.496094	30.578613	68.496094
69.719238	30.986328	69.719238
70.942383	28.540039	70.942383
72.573242	24.055176	72.573242
74.611816	18.347168	74.611816
77.873535	20.385742	77.873535
77.873535	24.055176	77.873535
76.650391	24.870605	76.650391
75.019531	23.239746	75.019531
76.650391	24.462891	76.650391
79.912109	27.316895	79.912109
81.135254	28.132324	81.135254
82.766113	34.655762	82.766113
79.504395	34.655762	79.504395
78.688965	32.209473	78.688965
77.873535	36.694336	77.873535
75.427246	31.801758	75.427246
75.427246	30.578613	75.427246
73.388672	27.316895	73.388672
75.427246	24.462891	75.427246
78.688965	18.754883	78.688965
75.834961	18.347168	75.834961
80.319824	19.162598	80.319824
80.319824	18.347168	80.319824
80.727539	19.162598	80.727539
78.688965	15.493164	78.688965
79.504395	17.124023	79.504395
79.096680	21.608887	79.096680
79.912109	31.394043	79.912109
79.912109	30.578613	79.912109
75.019531	26.909180	75.019531
75.427246	33.432617	75.427246
70.942383	29.355469	70.942383
73.388672	24.870605	73.388672
69.719238	22.424316	69.719238
68.496094	21.201172	68.496094
66.865234	14.677734	66.865234
69.311523	17.124023	69.311523
67.272949	19.162598	67.272949
67.680664	21.201172	67.680664
67.272949	22.424316	67.272949
66.865234	27.316895	66.865234
68.088379	26.909180	68.088379
70.942383	23.239746	70.942383
72.573242	29.355469	72.573242
70.534668	28.132324	70.534668
67.680664	28.132324	67.680664
67.680664	26.501465	67.680664
68.088379	26.909180	68.088379
70.942383	19.978027	70.942383
67.680664	22.424316	67.680664
68.496094	18.347168	68.496094
67.680664	11.416016	67.680664
69.311523	11.416016	69.311523
72.573242	15.493164	72.573242
71.757812	15.900879	71.757812
70.942383	18.347168	70.942383
65.642090	17.124023	65.642090
64.418945	17.124023	64.418945
61.564941	23.239746	61.564941
66.865234	28.947754	66.865234
67.272949	36.286621	67.272949
66.865234	31.801758	66.865234
68.903809	36.694336	68.903809
65.642090	30.578613	65.642090
66.457520	29.355469	66.457520
66.865234	22.424316	66.865234
69.311523	19.978027	69.311523
65.642090	13.046875	65.642090
68.496094	17.124023	68.496094
67.680664	21.201172	67.680664
68.903809	19.978027	68.903809
67.680664	24.870605	67.680664
69.311523	30.986328	69.311523
69.311523	32.617187	69.311523
71.757812	35.471191	71.757812
75.427246	40.771484	75.427246
75.019531	40.363770	75.019531
72.573242	33.024902	72.573242
71.757812	32.617187	71.757812
69.311523	32.617187	69.311523
73.796387	29.763184	73.796387
72.980957	28.540039	72.980957
76.242676	29.355469	76.242676
76.242676	21.201172	76.242676
80.319824	27.724609	80.319824
80.319824	33.024902	80.319824
77.465820	35.878906	77.465820
75.834961	38.325195	75.834961
74.611816	35.878906	74.611816
73.388672	40.363770	73.388672
72.980957	39.140625	72.980957
69.311523	46.479492	69.311523
68.496094	48.110352	68.496094
70.534668	41.179199	70.534668
68.088379	47.294922	68.088379
68.088379	37.509766	68.088379
68.496094	35.063477	68.496094
71.350098	30.986328	71.350098
75.019531	26.909180	75.019531
76.242676	24.055176	76.242676
75.427246	19.162598	75.427246
74.611816	26.909180	74.611816
67.272949	25.278320	67.272949
66.865234	28.947754	66.865234
66.457520	32.209473	66.457520
67.272949	35.471191	67.272949
66.865234	37.102051	66.865234
64.418945	43.625488	64.418945
63.603516	42.402344	63.603516
66.865234	35.878906	66.865234
64.011230	34.655762	64.011230
63.195801	26.909180	63.195801
61.157227	25.278320	61.157227
67.680664	25.686035	67.680664
66.457520	17.531738	66.457520
70.942383	16.716309	70.942383
73.388672	12.231445	73.388672
73.388672	18.754883	73.388672
73.388672	23.647461	73.388672
74.611816	26.909180	74.611816
72.165527	26.501465	72.165527
71.757812	22.424316	71.757812
68.903809	25.686035	68.903809
67.272949	31.801758	67.272949
64.011230	26.909180	64.011230
64.826660	26.501465	64.826660
67.272949	24.870605	67.272949
70.534668	22.832031	70.534668
68.496094	25.686035	68.496094
68.496094	24.870605	68.496094
66.865234	25.686035	66.865234
65.234375	19.978027	65.234375
68.496094	15.900879	68.496094
71.350098	17.124023	71.350098
70.942383	19.978027	70.942383
68.496094	24.055176	68.496094
69.719238	27.724609	69.719238
71.350098	22.832031	71.350098
70.942383	25.686035	70.942383
73.388672	35.878906	73.388672
69.311523	34.655762	69.311523
62.788086	31.801758	62.788086
63.195801	37.102051	63.195801
60.749512	31.801758	60.749512
64.418945	33.432617	64.418945
67.680664	34.248047	67.680664
72.165527	33.432617	72.165527
71.757812	31.394043	71.757812
71.350098	28.132324	71.350098
77.465820	27.724609	77.465820
77.465820	25.686035	77.465820
75.834961	26.909180	75.834961
73.388672	28.947754	73.388672
69.311523	32.209473	69.311523
72.980957	37.509766	72.980957
72.573242	40.363770	72.573242
71.757812	37.509766	71.757812
68.088379	35.878906	68.088379
68.496094	36.286621	68.496094
66.865234	34.655762	66.865234
69.311523	34.655762	69.311523
70.942383	37.509766	70.942383
72.573242	35.471191	72.573242
72.573242	29.763184	72.573242
72.573242	26.501465	72.573242
68.496094	31.394043	68.496094
73.388672	29.763184	73.388672
70.942383	33.432617	70.942383
76.650391	37.102051	76.650391
76.242676	35.878906	76.242676
73.388672	46.887207	73.388672
74.611816	49.741211	74.611816
74.611816	50.556641	74.611816
71.757812	43.625488	71.757812
73.796387	45.256348	73.796387
76.650391	39.548340	76.650391
75.019531	37.509766	75.019531
76.650391	33.432617	76.650391
75.427246	28.947754	75.427246
77.058105	25.278320	77.058105
79.096680	24.055176	79.096680
80.319824	30.986328	80.319824
83.989258	33.432617	83.989258
85.620117	38.732910	85.620117
81.542969	39.140625	81.542969
80.727539	39.548340	80.727539
75.427246	43.217773	75.427246
72.165527	46.479492	72.165527
68.496094	42.810059	68.496094
68.088379	36.286621	68.088379
67.680664	36.694336	67.680664
67.272949	28.132324	67.272949
68.496094	26.501465	68.496094
70.534668	26.909180	70.534668
68.496094	23.647461	68.496094
70.942383	17.124023	70.942383
76.650391	22.832031	76.650391
75.834961	24.462891	75.834961
82.766113	25.278320	82.766113
84.396973	24.870605	84.396973
84.396973	24.870605	84.396973
81.135254	29.763184	81.135254
79.912109	31.801758	79.912109
79.504395	39.548340	79.504395
72.980957	40.771484	72.980957
74.611816	33.024902	74.611816
75.427246	34.655762	75.427246
75.427246	28.947754	75.427246
78.688965	25.686035	78.688965
79.504395	24.055176	79.504395
80.319824	14.677734	80.319824
81.135254	11.008301	81.135254
84.804687	6.931152	84.804687
77.873535	16.308594	77.873535
77.465820	22.424316	77.465820
73.796387	24.870605	73.796387
74.611816	24.870605	74.611816
76.242676	25.686035	76.242676
75.427246	29.355469	75.427246
78.688965	33.432617	78.688965
78.688965	33.432617	78.688965
73.388672	31.801758	73.388672
72.980957	32.209473	72.980957
70.942383	24.055176	70.942383
70.942383	25.278320	70.942383
68.496094	18.754883	68.496094
68.903809	19.162598	68.903809
68.496094	14.677734	68.496094
70.534668	13.046875	70.534668
72.165527	14.677734	72.165527
77.058105	18.347168	77.058105
76.650391	25.278320	76.650391
75.019531	22.424316	75.019531
74.611816	25.686035	74.611816
79.096680	24.462891	79.096680
79.096680	33.432617	79.096680
75.019531	30.986328	75.019531
75.427246	31.801758	75.427246
68.088379	32.617187	68.088379
71.757812	29.355469	71.757812
66.865234	28.132324	66.865234
68.903809	25.686035	68.903809
66.457520	22.424316	66.457520
65.642090	18.347168	65.642090
66.865234	16.308594	66.865234
67.272949	15.493164	67.272949
65.642090	16.716309	65.642090
70.942383	17.124023	70.942383
66.865234	21.201172	66.865234
72.573242	24.055176	72.573242
71.757812	28.132324	71.757812
77.465820	34.655762	77.465820
76.650391	38.732910	76.650391
77.465820	33.432617	77.465820
72.980957	39.140625	72.980957
75.427246	29.355469	75.427246
75.427246	33.024902	75.427246
77.058105	24.055176	77.058105
76.650391	19.162598	76.650391
77.058105	19.978027	77.058105
78.688965	15.493164	78.688965
80.727539	27.316895	80.727539
79.912109	25.686035	79.912109
80.727539	33.432617	80.727539
80.319824	31.801758	80.319824
79.504395	33.024902	79.504395
75.019531	33.432617	75.019531
75.427246	36.694336	75.427246
77.058105	34.248047	77.058105
74.611816	31.394043	74.611816
75.427246	35.878906	75.427246
76.242676	31.801758	76.242676
71.350098	36.694336	71.350098
68.903809	32.209473	68.903809
66.865234	30.578613	66.865234
70.534668	30.578613	70.534668
70.534668	32.209473	70.534668
75.427246	27.724609	75.427246
80.319824	28.132324	80.319824
77.465820	30.578613	77.465820
77.873535	28.540039	77.873535
77.465820	31.801758	77.465820
73.388672	36.286621	73.388672
72.980957	42.810059	72.980957
70.942383	43.625488	70.942383
69.311523	38.732910	69.311523
72.980957	39.140625	72.980957
71.757812	39.548340	71.757812
75.834961	37.509766	75.834961
75.427246	35.878906	75.427246
75.427246	32.209473	75.427246
73.388672	27.724609	73.388672
75.427246	24.462891	75.427246
75.427246	30.578613	75.427246
79.096680	29.355469	79.096680
79.504395	36.694336	79.504395
81.135254	39.548340	81.135254
78.688965	39.548340	78.688965
79.504395	52.187500	79.504395
77.058105	55.449219	77.058105
74.611816	58.303223	74.611816
71.757812	48.110352	71.757812
70.942383	48.925781	70.942383
69.719238	46.479492	69.719238
75.834961	42.810059	75.834961
76.242676	40.771484	76.242676
79.096680	38.325195	79.096680
72.980957	40.771484	72.980957
70.534668	44.033203	70.534668
72.573242	46.887207	72.573242
73.388672	40.363770	73.388672
71.350098	47.294922	71.350098
70.942383	44.848633	70.942383
71.350098	47.294922	71.350098
73.388672	51.779785	73.388672
77.058105	56.672363	77.058105
75.427246	53.410645	75.427246
72.573242	50.556641	72.573242
72.573242	52.187500	72.573242
70.534668	46.479492	70.534668
72.165527	46.887207	72.165527
70.942383	47.294922	70.942383
75.427246	41.179199	75.427246
76.650391	39.140625	76.650391
79.504395	39.548340	79.504395
86.435547	42.402344	86.435547
78.688965	44.440918	78.688965
75.427246	48.925781	75.427246
73.388672	48.925781	73.388672
75.427246	52.595215	75.427246
67.680664	56.672363	67.680664
68.903809	60.341797	68.903809
66.865234	56.672363	66.865234
64.826660	50.964355	64.826660
64.418945	50.964355	64.418945
60.749512	45.664062	60.749512
62.788086	43.625488	62.788086
63.603516	42.810059	63.603516
64.011230	38.732910	64.011230
66.865234	31.801758	66.865234
69.311523	33.024902	69.311523
71.350098	34.248047	71.350098
74.611816	36.694336	74.611816
75.834961	45.256348	75.834961
77.058105	37.509766	77.058105
79.504395	38.732910	79.504395
77.465820	34.655762	77.465820
75.019531	44.033203	75.019531
72.573242	40.363770	72.573242
73.388672	35.471191	73.388672
69.311523	32.209473	69.311523
72.573242	31.394043	72.573242
72.573242	27.316895	72.573242
75.427246	28.132324	75.427246
76.242676	21.201172	76.242676
73.388672	15.493164	73.388672
71.757812	18.754883	71.757812
70.534668	24.870605	70.534668
71.757812	24.055176	71.757812
73.388672	30.986328	73.388672
72.165527	25.686035	72.165527
75.427246	28.947754	75.427246
71.757812	30.986328	71.757812
70.942383	40.363770	70.942383
70.942383	36.286621	70.942383
70.942383	35.063477	70.942383
67.272949	39.956055	67.272949
68.496094	34.655762	68.496094
68.496094	33.432617	68.496094
68.903809	26.909180	68.903809
64.826660	24.870605	64.826660
67.272949	17.531738	67.272949
71.757812	24.462891	71.757812
76.650391	29.763184	76.650391
75.834961	24.870605	75.834961
78.688965	30.986328	78.688965
72.980957	31.394043	72.980957
75.834961	33.432617	75.834961
76.650391	36.694336	76.650391
77.873535	42.402344	77.873535
77.058105	48.518066	77.058105
76.650391	41.586914	76.650391
72.165527	39.140625	72.165527
69.719238	33.024902	69.719238
68.496094	28.540039	68.496094
71.757812	31.801758	71.757812
76.242676	23.239746	76.242676
75.834961	20.793457	75.834961
80.319824	24.055176	80.319824
81.135254	24.870605	81.135254
80.319824	26.909180	80.319824
81.135254	27.724609	81.135254
80.319824	31.801758	80.319824
79.912109	34.655762	79.912109
83.581543	39.140625	83.581543
79.912109	48.110352	79.912109
80.319824	46.479492	80.319824
78.688965	41.179199	78.688965
76.650391	42.402344	76.650391
76.242676	36.694336	76.242676
81.135254	36.286621	81.135254
80.319824	36.694336	80.319824
84.396973	33.432617	84.396973
85.212402	25.686035	85.212402
82.766113	30.578613	82.766113
84.396973	35.063477	84.396973
79.504395	34.655762	79.504395
82.358398	42.810059	82.358398
77.465820	44.440918	77.465820
77.465820	44.033203	77.465820
77.465820	51.372070	77.465820
76.650391	52.595215	76.650391
75.427246	50.556641	75.427246
75.427246	46.887207	75.427246
76.650391	47.294922	76.650391
77.465820	38.325195	77.465820
79.504395	38.732910	79.504395
77.465820	38.325195	77.465820
79.096680	42.402344	79.096680
77.873535	33.432617	77.873535
77.058105	36.694336	77.058105
81.135254	43.625488	81.135254
79.504395	44.440918	79.504395
78.688965	51.779785	78.688965
74.611816	48.110352	74.611816
74.611816	48.110352	74.611816
65.642090	49.741211	65.642090
65.234375	48.925781	65.234375
62.788086	50.964355	62.788086
65.642090	48.925781	65.642090
72.165527	49.741211	72.165527
75.427246	46.479492	75.427246
76.650391	51.779785	76.650391
77.465820	51.372070	77.465820
77.465820	47.294922	77.465820
75.427246	37.102051	75.427246
76.650391	38.732910	76.650391
81.542969	40.771484	81.542969
77.873535	39.956055	77.873535
80.727539	44.848633	80.727539
75.427246	41.586914	75.427246
73.796387	42.810059	73.796387
69.311523	50.556641	69.311523
72.573242	55.041504	72.573242
72.980957	54.633789	72.980957
72.165527	46.887207	72.165527
75.427246	46.887207	75.427246
77.465820	43.625488	77.465820
75.834961	47.294922	75.834961
76.650391	44.848633	76.650391
74.611816	44.033203	74.611816
73.388672	37.509766	73.388672
70.942383	37.509766	70.942383
67.680664	44.033203	67.680664
67.680664	43.625488	67.680664
71.757812	46.479492	71.757812
66.865234	48.110352	66.865234
67.272949	48.925781	67.272949
60.749512	53.002930	60.749512
64.418945	55.041504	64.418945
61.564941	53.818359	61.564941
64.418945	51.372070	64.418945
62.380371	52.187500	62.380371
61.564941	45.256348	61.564941
61.157227	43.217773	61.157227
56.672363	42.402344	56.672363
59.118652	42.402344	59.118652
59.118652	29.763184	59.118652
57.487793	37.509766	57.487793
59.118652	37.509766	59.118652
59.934082	41.586914	59.934082
62.380371	48.110352	62.380371
64.011230	47.294922	64.011230
64.826660	48.925781	64.826660
62.380371	53.410645	62.380371
65.642090	59.118652	65.642090
62.380371	59.934082	62.380371
62.788086	55.856934	62.788086
61.157227	54.633789	61.157227
59.934082	55.041504	59.934082
57.080078	53.002930	57.080078
57.487793	49.741211	57.487793
57.487793	45.256348	57.487793
53.410645	39.548340	53.410645
55.041504	44.033203	55.041504
52.187500	46.479492	52.187500
59.118652	44.440918	59.118652
57.080078	45.664062	57.080078
59.526367	50.556641	59.526367
57.487793	48.925781	57.487793
55.041504	53.818359	55.041504
55.041504	56.672363	55.041504
55.041504	54.633789	55.041504
49.741211	51.372070	49.741211
55.041504	55.041504	55.041504
55.041504	52.187500	55.041504
52.187500	51.372070	52.187500
55.856934	49.741211	55.856934
56.672363	44.440918	56.672363
56.672363	39.548340	56.672363
56.672363	43.625488	56.672363
53.002930	43.625488	53.002930
54.633789	41.179199	54.633789
55.856934	44.440918	55.856934
50.556641	43.217773	50.556641
49.741211	47.702637	49.741211
46.479492	52.595215	46.479492
41.179199	55.856934	41.179199
43.625488	55.856934	43.625488
42.810059	52.187500	42.810059
44.033203	53.002930	44.033203
46.479492	48.110352	46.479492
53.818359	48.110352	53.818359
59.118652	45.664062	59.118652
52.187500	39.956055	52.187500
48.925781	38.732910	48.925781
50.964355	40.771484	50.964355
53.002930	41.586914	53.002930
53.002930	39.956055	53.002930
51.779785	43.625488	51.779785
51.779785	49.333496	51.779785
49.333496	47.294922	49.333496
52.187500	55.856934	52.187500
49.333496	65.234375	49.333496
50.556641	59.934082	50.556641
44.848633	55.856934	44.848633
43.625488	56.672363	43.625488
43.217773	45.256348	43.217773
44.033203	45.664062	44.033203
43.625488	38.732910	43.625488
38.732910	38.325195	38.732910
39.140625	33.432617	39.140625
41.179199	41.179199	41.179199
48.518066	46.479492	48.518066
51.372070	43.217773	51.372070
57.080078	44.440918	57.080078
56.672363	48.110352	56.672363
58.710937	49.333496	58.710937
53.818359	48.110352	53.818359
53.002930	53.002930	53.002930
52.187500	48.518066	52.187500
45.664062	42.810059	45.664062
48.110352	41.179199	48.110352
46.887207	35.878906	46.887207
49.741211	35.063477	49.741211
51.779785	35.878906	51.779785
50.964355	34.655762	50.964355
49.333496	28.540039	49.333496
48.110352	28.540039	48.110352
47.294922	30.986328	47.294922
45.664062	31.801758	45.664062
46.479492	35.878906	46.479492
39.548340	40.771484	39.548340
43.217773	40.363770	43.217773
38.732910	40.363770	38.732910
43.217773	41.179199	43.217773
43.217773	40.771484	43.217773
46.887207	37.509766	46.887207
43.217773	35.063477	43.217773
45.256348	32.209473	45.256348
45.256348	29.763184	45.256348
44.848633	30.986328	44.848633
42.810059	24.870605	42.810059
42.810059	22.832031	42.810059
43.625488	30.986328	43.625488
46.887207	28.540039	46.887207
45.664062	27.316895	45.664062
49.741211	28.947754	49.741211
48.925781	33.432617	48.925781
49.741211	36.286621	49.741211
50.556641	44.848633	50.556641
44.033203	47.294922	44.033203
40.771484	42.402344	40.771484
39.956055	39.956055	39.956055
39.140625	38.325195	39.140625
41.179199	29.355469	41.179199
40.363770	34.655762	40.363770
43.625488	30.986328	43.625488
42.402344	31.801758	42.402344
42.402344	22.832031	42.402344
41.179199	23.647461	41.179199
46.887207	26.909180	46.887207
44.848633	26.909180	44.848633
48.925781	31.801758	48.925781
47.702637	33.432617	47.702637
46.887207	33.432617	46.887207
45.664062	39.548340	45.664062
44.848633	41.179199	44.848633
44.440918	39.956055	44.440918
43.625488	31.801758	43.625488
41.179199	33.024902	41.179199
39.140625	29.763184	39.140625
38.325195	29.763184	38.325195
34.248047	32.617187	34.248047
34.248047	26.501465	34.248047
35.471191	19.162598	35.471191
37.509766	23.647461	37.509766
42.402344	21.201172	42.402344
47.702637	27.724609	47.702637
47.702637	32.617187	47.702637
45.664062	34.655762	45.664062
41.586914	32.617187	41.586914
42.402344	41.179199	42.402344
39.956055	45.256348	39.956055
36.694336	50.556641	36.694336
39.140625	41.179199	39.140625
39.140625	47.702637	39.140625
39.140625	42.402344	39.140625
40.363770	41.179199	40.363770
42.810059	38.325195	42.810059
42.810059	34.655762	42.810059
44.033203	24.870605	44.033203
44.848633	28.947754	44.848633
40.363770	37.102051	40.363770
39.548340	33.432617	39.548340
42.402344	34.655762	42.402344
43.217773	36.694336	43.217773
41.586914	37.509766	41.586914
42.810059	46.479492	42.810059
38.325195	58.303223	38.325195
41.179199	50.964355	41.179199
36.694336	43.625488	36.694336
38.732910	43.625488	38.732910
39.956055	32.209473	39.956055
41.586914	30.578613	41.586914
48.925781	26.501465	48.925781
50.964355	21.608887	50.964355
55.856934	19.570313	55.856934
53.002930	20.793457	53.002930
55.041504	20.385742	55.041504
50.964355	16.716309	50.964355
45.664062	21.201172	45.664062
41.179199	24.870605	41.179199
47.294922	28.947754	47.294922
48.110352	31.801758	48.110352
56.672363	43.217773	56.672363
54.633789	45.256348	54.633789
55.856934	48.110352	55.856934
55.856934	51.372070	55.856934
53.002930	41.179199	53.002930
55.041504	39.956055	55.041504
57.080078	38.732910	57.080078
60.749512	31.801758	60.749512
66.457520	22.424316	66.457520
68.496094	23.239746	68.496094
68.903809	25.278320	68.903809
77.465820	23.239746	77.465820
79.504395	24.055176	79.504395
79.504395	25.686035	79.504395
79.504395	19.162598	79.504395
79.912109	29.763184	79.912109
82.358398	38.732910	82.358398
81.135254	43.625488	81.135254
82.766113	41.179199	82.766113
82.358398	39.140625	82.358398
85.212402	30.578613	85.212402
89.697266	27.316895	89.697266
97.443848	26.909180	97.443848
97.036133	26.909180	97.036133
94.589844	23.239746	94.589844
93.366699	19.978027	93.366699
96.220703	24.055176	96.220703
92.958984	21.201172	92.958984
99.074707	25.278320	99.074707
98.666992	28.132324	98.666992
102.744141	37.509766	102.744141
102.336426	42.402344	102.336426
103.559570	43.217773	103.559570
103.559570	44.440918	103.559570
102.336426	42.402344	102.336426
101.113281	46.479492	101.113281
98.666992	42.810059	98.666992
100.297852	35.878906	100.297852
95.405273	32.617187	95.405273
92.551270	25.278320	92.551270
95.812988	19.978027	95.812988
97.036133	24.055176	97.036133
101.113281	25.686035	101.113281
99.482422	23.647461	99.482422
103.967285	30.578613	103.967285
100.297852	33.432617	100.297852
97.443848	39.140625	97.443848
92.143555	42.402344	92.143555
89.289551	48.110352	89.289551
89.289551	43.217773	89.289551
87.250977	40.363770	87.250977
86.435547	39.548340	86.435547
88.474121	35.878906	88.474121
90.512695	36.694336	90.512695
91.328125	36.694336	91.328125
92.551270	35.878906	92.551270
92.958984	25.686035	92.958984
92.958984	30.986328	92.958984
91.328125	31.801758	91.328125
93.366699	33.432617	93.366699
88.474121	38.732910	88.474121
81.135254	39.140625	81.135254
82.766113	41.586914	82.766113
79.504395	42.402344	79.504395
81.135254	46.479492	81.135254
80.727539	39.548340	80.727539
81.135254	37.509766	81.135254
83.173828	35.878906	83.173828
84.396973	38.732910	84.396973
83.989258	35.063477	83.989258
77.465820	35.878906	77.465820
81.135254	31.801758	81.135254
81.135254	22.424316	81.135254
79.096680	24.870605	79.096680
81.135254	31.801758	81.135254
84.804687	30.986328	84.804687
80.319824	40.363770	80.319824
82.766113	38.732910	82.766113
81.135254	37.509766	81.135254
81.542969	41.179199	81.542969
82.358398	44.033203	82.358398
77.465820	44.033203	77.465820
76.650391	41.586914	76.650391
74.611816	44.440918	74.611816
75.019531	40.771484	75.019531
76.650391	39.140625	76.650391
77.465820	36.694336	77.465820
75.834961	32.617187	75.834961
75.019531	24.055176	75.019531
73.796387	30.986328	73.796387
74.611816	30.986328	74.611816
71.757812	29.763184	71.757812
70.534668	37.509766	70.534668
67.680664	35.471191	67.680664
68.903809	40.363770	68.903809
69.311523	44.033203	69.311523
75.019531	51.372070	75.019531
71.350098	49.741211	71.350098
72.980957	43.625488	72.980957
68.903809	42.402344	68.903809
71.757812	33.432617	71.757812
69.719238	35.063477	69.719238
72.573242	26.909180	72.573242
76.650391	24.870605	76.650391
73.388672	19.978027	73.388672
75.427246	21.201172	75.427246
72.165527	28.947754	72.165527
71.757812	25.686035	71.757812
75.427246	37.509766	75.427246
70.942383	41.179199	70.942383
75.019531	44.033203	75.019531
68.496094	48.110352	68.496094
71.350098	53.818359	71.350098
67.272949	41.179199	67.272949
69.719238	37.509766	69.719238
65.642090	34.655762	65.642090
68.496094	26.909180	68.496094
67.272949	26.501465	67.272949
67.272949	35.878906	67.272949
72.165527	30.578613	72.165527
70.534668	25.686035	70.534668
70.942383	27.724609	70.942383
70.942383	28.132324	70.942383
72.980957	30.986328	72.980957
69.719238	35.878906	69.719238
69.719238	34.655762	69.719238
63.195801	37.509766	63.195801
60.749512	36.694336	60.749512
63.603516	41.179199	63.603516
61.157227	38.732910	61.157227
59.934082	32.209473	59.934082
63.195801	36.286621	63.195801
67.680664	30.578613	67.680664
70.942383	29.763184	70.942383
70.942383	27.724609	70.942383
71.757812	26.909180	71.757812
70.534668	18.347168	70.534668
68.496094	24.462891	68.496094
70.534668	24.870605	70.534668
68.496094	27.724609	68.496094
65.642090	29.763184	65.642090
70.942383	31.801758	70.942383
72.573242	37.509766	72.573242
71.757812	40.363770	71.757812
68.903809	45.256348	68.903809
66.865234	44.033203	66.865234
64.826660	42.402344	64.826660
60.749512	39.548340	60.749512
65.234375	37.102051	65.234375
62.788086	37.509766	62.788086
61.564941	36.286621	61.564941
64.418945	35.878906	64.418945
65.234375	29.763184	65.234375
67.272949	28.947754	67.272949
69.311523	28.947754	69.311523
69.311523	27.724609	69.311523
72.573242	32.209473	72.573242
70.534668	34.655762	70.534668
67.680664	36.694336	67.680664
66.457520	44.848633	66.457520
64.826660	50.556641	64.826660
65.642090	49.333496	65.642090
59.118652	42.810059	59.118652
59.526367	40.363770	59.526367
59.118652	38.732910	59.118652
64.011230	41.179199	64.011230
66.457520	37.509766	66.457520
69.311523	37.509766	69.311523
72.573242	29.763184	72.573242
72.573242	32.209473	72.573242
65.642090	31.394043	65.642090
63.603516	31.801758	63.603516
61.157227	35.878906	61.157227
59.118652	41.179199	59.118652
59.934082	41.179199	59.934082
53.818359	41.179199	53.818359
55.449219	47.294922	55.449219
50.964355	48.518066	50.964355
47.294922	47.294922	47.294922
49.741211	46.479492	49.741211
55.449219	43.625488	55.449219
62.788086	39.548340	62.788086
67.680664	35.471191	67.680664
69.311523	33.432617	69.311523
69.311523	27.316895	69.311523
72.165527	34.655762	72.165527
73.388672	36.286621	73.388672
67.680664	39.548340	67.680664
68.496094	45.256348	68.496094
68.903809	42.810059	68.903809
63.603516	47.294922	63.603516
59.934082	45.256348	59.934082
59.118652	46.479492	59.118652
56.672363	42.402344	56.672363
55.041504	34.655762	55.041504
53.818359	38.732910	53.818359
54.633789	32.617187	54.633789
56.672363	38.732910	56.672363
55.449219	32.209473	55.449219
55.041504	30.986328	55.041504
55.856934	23.647461	55.856934
55.041504	28.540039	55.041504
54.633789	28.947754	54.633789
56.672363	26.909180	56.672363
53.818359	32.209473	53.818359
52.595215	31.801758	52.595215
49.741211	30.986328	49.741211
48.925781	33.432617	48.925781
49.741211	41.179199	49.741211
53.818359	37.509766	53.818359
51.779785	37.102051	51.779785
51.779785	41.179199	51.779785
51.779785	35.878906	51.779785
53.818359	38.325195	53.818359
49.741211	31.801758	49.741211
48.110352	28.947754	48.110352
49.741211	24.870605	49.741211
48.110352	27.316895	48.110352
52.595215	34.248047	52.595215
48.925781	35.471191	48.925781
49.741211	35.471191	49.741211
49.741211	42.402344	49.741211
49.741211	45.256348	49.741211
53.818359	48.925781	53.818359
48.925781	52.595215	48.925781
55.041504	48.925781	55.041504
49.333496	45.664062	49.333496
54.633789	47.294922	54.633789
46.479492	38.732910	46.479492
50.556641	37.102051	50.556641
51.372070	35.063477	51.372070
51.372070	35.878906	51.372070
49.741211	27.724609	49.741211
51.779785	32.617187	51.779785
49.333496	32.617187	49.333496
47.702637	35.878906	47.702637
48.925781	40.771484	48.925781
50.556641	37.509766	50.556641
53.002930	41.179199	53.002930
47.294922	40.363770	47.294922
48.925781	46.479492	48.925781
48.110352	41.586914	48.110352
44.440918	41.179199	44.440918
41.179199	44.440918	41.179199
43.625488	37.102051	43.625488
50.556641	38.325195	50.556641
51.779785	34.655762	51.779785
51.372070	29.355469	51.372070
52.595215	21.608887	52.595215
51.372070	25.278320	51.372070
51.779785	25.686035	51.779785
53.818359	29.355469	53.818359
50.964355	30.578613	50.964355
56.672363	26.909180	56.672363
53.818359	34.655762	53.818359
53.410645	35.878906	53.410645
50.964355	41.179199	50.964355
47.702637	40.771484	47.702637
48.925781	34.655762	48.925781
47.702637	35.878906	47.702637
47.294922	30.578613	47.294922
53.002930	29.355469	53.002930
51.779785	26.501465	51.779785
55.856934	24.870605	55.856934
55.041504	19.570313	55.041504
53.818359	23.647461	53.818359
51.779785	28.947754	51.779785
49.741211	24.870605	49.741211
51.372070	28.947754	51.372070
53.002930	25.686035	53.002930
53.002930	29.763184	53.002930
51.779785	31.801758	51.779785
53.002930	40.771484	53.002930
48.110352	37.509766	48.110352
48.110352	34.655762	48.110352
48.925781	39.140625	48.925781
47.294922	30.986328	47.294922
43.625488	30.986328	43.625488
46.479492	28.540039	46.479492
45.256348	28.947754	45.256348
44.033203	17.124023	44.033203
46.887207	22.424316	46.887207
43.625488	27.316895	43.625488
41.179199	24.870605	41.179199
42.810059	31.801758	42.810059
44.033203	32.209473	44.033203
49.741211	39.548340	49.741211
50.964355	39.140625	50.964355
46.887207	48.518066	46.887207
48.925781	44.848633	48.925781
50.964355	39.548340	50.964355
49.741211	42.810059	49.741211
47.294922	37.509766	47.294922
48.518066	33.024902	48.518066
46.887207	31.394043	46.887207
55.449219	28.947754	55.449219
49.741211	20.385742	49.741211
50.964355	19.162598	50.964355
50.556641	21.201172	50.556641
50.964355	22.424316	50.964355
53.818359	29.355469	53.818359
53.002930	37.102051	53.002930
51.372070	41.586914	51.372070
46.479492	45.256348	46.479492
48.518066	48.925781	48.518066
47.702637	39.956055	47.702637
46.887207	37.509766	46.887207
49.741211	37.509766	49.741211
47.294922	31.801758	47.294922
47.294922	31.801758	47.294922
46.887207	28.947754	46.887207
51.779785	30.986328	51.779785
48.518066	18.754883	48.518066
51.372070	25.686035	51.372070
49.741211	23.239746	49.741211
50.556641	23.647461	50.556641
58.710937	28.540039	58.710937
55.856934	29.355469	55.856934
55.041504	35.471191	55.041504
53.002930	35.063477	53.002930
57.487793	40.771484	57.487793
56.264648	36.286621	56.264648
58.710937	34.655762	58.710937
55.856934	39.140625	55.856934
56.264648	31.801758	56.264648
50.964355	26.501465	50.964355
54.633789	25.278320	54.633789
56.264648	22.424316	56.264648
53.002930	16.716309	53.002930
56.672363	24.462891	56.672363
53.002930	24.870605	53.002930
53.818359	25.278320	53.818359
50.964355	26.909180	50.964355
53.002930	27.316895	53.002930
48.518066	31.801758	48.518066
52.595215	31.394043	52.595215
49.333496	37.509766	49.333496
49.333496	29.355469	49.333496
45.256348	24.870605	45.256348
48.110352	30.578613	48.110352
45.256348	30.986328	45.256348
44.848633	26.909180	44.848633
45.256348	24.055176	45.256348
49.333496	19.162598	49.333496
44.848633	17.124023	44.848633
49.333496	22.424316	49.333496
53.410645	23.239746	53.410645
54.633789	24.055176	54.633789
56.264648	28.132324	56.264648
56.264648	29.763184	56.264648
55.041504	33.024902	55.041504
48.110352	32.617187	48.110352
43.625488	38.325195	43.625488
41.179199	30.578613	41.179199
39.956055	28.947754	39.956055
40.771484	30.578613	40.771484
39.956055	24.055176	39.956055
42.402344	23.239746	42.402344
42.810059	24.870605	42.810059
46.479492	21.201172	46.479492
47.294922	16.308594	47.294922
46.887207	21.608887	46.887207
43.217773	26.909180	43.217773
45.256348	19.978027	45.256348
42.402344	28.947754	42.402344
40.771484	28.947754	40.771484
40.363770	30.986328	40.363770
38.732910	35.471191	38.732910
41.586914	40.771484	41.586914
36.286621	39.548340	36.286621
39.548340	36.694336	39.548340
38.325195	36.694336	38.325195
41.586914	30.578613	41.586914
43.217773	33.024902	43.217773
42.810059	26.909180	42.810059
47.294922	28.540039	47.294922
43.625488	19.162598	43.625488
48.518066	26.909180	48.518066
45.256348	28.132324	45.256348
47.294922	28.540039	47.294922
49.333496	36.286621	49.333496
44.848633	36.286621	44.848633
44.440918	35.878906	44.440918
44.848633	40.363770	44.848633
45.256348	47.294922	45.256348
44.033203	44.440918	44.033203
41.586914	44.440918	41.586914
40.363770	41.179199	40.363770
35.471191	32.209473	35.471191
36.694336	31.801758	36.694336
36.286621	31.394043	36.286621
36.286621	32.617187	36.286621
38.325195	22.424316	38.325195
43.217773	29.355469	43.217773
44.848633	29.355469	44.848633
48.925781	30.986328	48.925781
51.779785	29.763184	51.779785
52.595215	35.471191	52.595215
53.818359	33.432617	53.818359
50.964355	39.548340	50.964355
48.110352	41.179199	48.110352
45.256348	41.586914	45.256348
41.179199	41.179199	41.179199
44.848633	44.033203	44.848633
44.848633	35.471191	44.848633
48.925781	34.655762	48.925781
46.887207	28.947754	46.887207
44.033203	30.986328	44.033203
45.256348	24.870605	45.256348
43.217773	33.024902	43.217773
43.217773	36.286621	43.217773
47.294922	39.548340	47.294922
45.256348	42.402344	45.256348
41.179199	45.256348	41.179199
39.140625	42.402344	39.140625
43.217773	48.925781	43.217773
42.810059	52.187500	42.810059
38.325195	50.556641	38.325195
39.956055	45.256348	39.956055
38.732910	48.518066	38.732910
38.325195	47.702637	38.325195
41.179199	42.402344	41.179199
38.732910	37.509766	38.732910
39.548340	33.432617	39.548340
40.363770	28.132324	40.363770
40.363770	32.617187	40.363770
40.363770	36.694336	40.363770
37.102051	35.878906	37.102051
39.140625	41.179199	39.140625
35.063477	41.586914	35.063477
37.102051	40.771484	37.102051
35.878906	44.033203	35.878906
32.617187	52.595215	32.617187
33.024902	48.110352	33.024902
30.986328	42.810059	30.986328
31.394043	44.440918	31.394043
30.578613	35.878906	30.578613
37.102051	37.509766	37.102051
37.102051	36.694336	37.102051
36.694336	33.432617	36.694336
37.102051	20.793457	37.102051
39.548340	25.686035	39.548340
40.363770	27.724609	40.363770
44.033203	29.355469	44.033203
40.771484	34.655762	40.771484
35.878906	38.325195	35.878906
29.763184	35.878906	29.763184
26.909180	39.956055	26.909180
29.763184	43.625488	29.763184
33.432617	37.102051	33.432617
35.878906	37.509766	35.878906
38.325195	34.248047	38.325195
35.471191	31.394043	35.471191
36.694336	31.801758	36.694336
35.878906	30.578613	35.878906
39.140625	29.763184	39.140625
39.956055	19.978027	39.956055
39.956055	24.055176	39.956055
36.286621	27.316895	36.286621
38.325195	28.540039	38.325195
37.509766	36.694336	37.509766
37.509766	33.432617	37.509766
39.956055	37.509766	39.956055
39.140625	35.878906	39.140625
38.325195	43.625488	38.325195
32.209473	36.286621	32.209473
36.286621	36.694336	36.286621
37.102051	39.548340	37.102051
36.286621	38.732910	36.286621
39.548340	38.325195	39.548340
39.956055	41.179199	39.956055
43.217773	28.947754	43.217773
39.956055	24.462891	39.956055
35.878906	22.424316	35.878906
35.471191	26.501465	35.471191
32.209473	27.316895	32.209473
38.325195	30.986328	38.325195
34.248047	34.655762	34.248047
37.102051	35.878906	37.102051
39.140625	37.509766	39.140625
40.363770	43.625488	40.363770
39.548340	38.732910	39.548340
39.956055	35.878906	39.956055
41.586914	38.325195	41.586914
38.732910	32.617187	38.732910
38.325195	29.763184	38.325195
36.694336	27.316895	36.694336
40.363770	24.870605	40.363770
37.509766	16.308594	37.509766
41.179199	22.832031	41.179199
41.586914	24.870605	41.586914
39.956055	23.239746	39.956055
38.325195	29.763184	38.325195
35.471191	32.617187	35.471191
35.878906	30.986328	35.878906
37.509766	32.209473	37.509766
39.548340	36.694336	39.548340
35.471191	35.878906	35.471191
36.286621	40.363770	36.286621
35.471191	40.363770	35.471191
34.248047	28.132324	34.248047
39.140625	28.132324	39.140625
37.102051	26.501465	37.102051
40.363770	19.978027	40.363770
38.325195	12.231445	38.325195
38.325195	14.677734	38.325195
39.140625	15.493164	39.140625
36.694336	17.124023	36.694336
38.325195	22.424316	38.325195
33.024902	24.055176	33.024902
35.063477	28.132324	35.063477
33.024902	27.724609	33.024902
35.471191	32.617187	35.471191
36.694336	30.986328	36.694336
37.509766	28.947754	37.509766
37.102051	28.947754	37.102051
33.432617	26.909180	33.432617
30.578613	27.724609	30.578613
34.655762	20.385742	34.655762
26.501465	20.793457	26.501465
32.209473	15.493164	32.209473
30.578613	16.308594	30.578613
37.509766	19.570313	37.509766
36.286621	15.085449	36.286621
33.024902	22.424316	33.024902
35.471191	22.832031	35.471191
34.248047	25.686035	34.248047
32.209473	29.355469	32.209473
28.132324	35.471191	28.132324
32.209473	27.724609	32.209473
27.316895	23.239746	27.316895
29.355469	21.608887	29.355469
24.870605	24.055176	24.870605
25.278320	25.686035	25.278320
25.278320	17.124023	25.278320
27.316895	17.124023	27.316895
30.578613	10.600586	30.578613
35.063477	15.900879	35.063477
32.617187	13.046875	32.617187
30.578613	14.677734	30.578613
31.394043	21.201172	31.394043
30.578613	19.162598	30.578613
28.132324	21.201172	28.132324
29.355469	27.724609	29.355469
30.986328	28.947754	30.986328
28.947754	26.501465	28.947754
28.947754	25.686035	28.947754
28.132324	29.763184	28.132324
32.617187	23.239746	32.617187
33.024902	24.055176	33.024902
31.394043	24.055176	31.394043
34.248047	19.570313	34.248047
33.024902	14.677734	33.024902
33.432617	14.677734	33.432617
33.024902	16.308594	33.024902
34.655762	16.716309	34.655762
31.394043	24.055176	31.394043
27.724609	27.724609	27.724609
25.686035	24.870605	25.686035
23.647461	31.394043	23.647461
26.501465	34.248047	26.501465
22.832031	31.394043	22.832031
24.462891	28.947754	24.462891
25.278320	32.209473	25.278320
24.870605	21.201172	24.870605
23.647461	24.055176	23.647461
28.132324	27.724609	28.132324
29.355469	22.424316	29.355469
30.986328	18.347168	30.986328
34.248047	21.608887	34.248047
32.617187	21.201172	32.617187
30.986328	26.909180	30.986328
30.578613	31.801758	30.578613
32.209473	28.132324	32.209473
32.617187	32.209473	32.617187
31.394043	30.986328	31.394043
31.394043	39.548340	31.394043
32.209473	33.024902	32.209473
30.578613	30.578613	30.578613
31.394043	29.763184	31.394043
31.394043	24.055176	31.394043
32.209473	26.909180	32.209473
30.578613	20.793457	30.578613
36.286621	19.570313	36.286621
34.248047	15.493164	34.248047
34.248047	15.900879	34.248047
33.432617	17.124023	33.432617
29.355469	15.085449	29.355469
30.986328	23.239746	30.986328
26.501465	26.501465	26.501465
27.316895	30.986328	27.316895
24.462891	31.801758	24.462891
21.608887	34.248047	21.608887
18.754883	29.763184	18.754883
15.900879	27.724609	15.900879
18.754883	27.724609	18.754883
21.201172	23.239746	21.201172
24.870605	21.201172	24.870605
28.947754	21.201172	28.947754
27.316895	13.046875	27.316895
21.608887	10.600586	21.608887
22.832031	10.600586	22.832031
24.870605	9.377441	24.870605
24.870605	14.677734	24.870605
28.132324	19.978027	28.132324
24.462891	19.978027	24.462891
29.355469	23.239746	29.355469
28.947754	24.870605	28.947754
31.801758	31.801758	31.801758
28.132324	24.870605	28.132324
28.947754	23.239746	28.947754
28.947754	23.239746	28.947754
22.424316	19.978027	22.424316
28.540039	23.647461	28.540039
27.316895	24.870605	27.316895
22.832031	17.124023	22.832031
25.686035	8.562012	25.686035
22.424316	8.154297	22.424316
26.501465	11.416016	26.501465
27.316895	12.639160	27.316895
31.801758	22.424316	31.801758
30.986328	22.424316	30.986328
33.432617	26.909180	33.432617
35.063477	29.355469	35.063477
33.432617	38.325195	33.432617
31.801758	36.694336	31.801758
27.724609	39.548340	27.724609
25.686035	35.878906	25.686035
25.278320	30.986328	25.278320
25.686035	24.462891	25.686035
26.501465	19.978027	26.501465
26.909180	19.162598	26.909180
29.763184	13.454590	29.763184
32.209473	19.162598	32.209473
30.578613	22.424316	30.578613
31.801758	24.870605	31.801758
33.024902	30.986328	33.024902
31.394043	34.248047	31.394043
34.248047	35.471191	34.248047
32.209473	40.363770	32.209473
37.102051	40.363770	37.102051
31.801758	39.548340	31.801758
34.248047	40.363770	34.248047
32.209473	35.878906	32.209473
30.578613	29.763184	30.578613
31.394043	28.132324	31.394043
29.355469	28.132324	29.355469
29.763184	20.385742	29.763184
28.947754	11.416016	28.947754
28.132324	17.124023	28.132324
31.801758	16.308594	31.801758
34.248047	21.201172	34.248047
39.140625	26.909180	39.140625
33.024902	29.763184	33.024902
34.248047	35.063477	34.248047
30.578613	33.432617	30.578613
26.909180	43.217773	26.909180
24.462891	35.878906	24.462891
29.355469	36.694336	29.355469
28.132324	40.363770	28.132324
33.024902	32.617187	33.024902
32.617187	38.732910	32.617187
35.878906	33.432617	35.878906
32.209473	33.432617	32.209473
34.655762	26.501465	34.655762
33.024902	28.540039	33.024902
36.694336	27.316895	36.694336
33.024902	27.724609	33.024902
32.209473	28.132324	32.209473
32.209473	30.986328	32.209473
30.578613	30.986328	30.578613
29.355469	34.655762	29.355469
28.540039	37.509766	28.540039
29.355469	34.655762	29.355469
29.355469	33.432617	29.355469
31.394043	34.655762	31.394043
35.471191	32.209473	35.471191
34.655762	29.763184	34.655762
31.394043	27.724609	31.394043
35.471191	21.608887	35.471191
30.986328	14.677734	30.986328
33.432617	18.347168	33.432617
24.462891	16.716309	24.462891
20.385742	16.716309	20.385742
22.424316	20.385742	22.424316
16.308594	21.201172	16.308594
25.278320	23.239746	25.278320
24.462891	28.132324	24.462891
28.132324	33.024902	28.132324
27.316895	28.540039	27.316895
25.278320	26.909180	25.278320
28.947754	25.686035	28.947754
30.986328	15.900879	30.986328
30.578613	21.201172	30.578613
30.578613	16.716309	30.578613
34.655762	15.900879	34.655762
28.132324	7.746582	28.132324
35.471191	11.008301	35.471191
33.024902	13.046875	33.024902
34.248047	15.493164	34.248047
34.248047	20.385742	34.248047
31.801758	17.124023	31.801758
30.578613	19.978027	30.578613
26.909180	26.909180	26.909180
28.947754	31.801758	28.947754
29.763184	30.986328	29.763184
33.024902	25.686035	33.024902
31.394043	28.540039	31.394043
29.763184	22.832031	29.763184
29.355469	22.424316	29.355469
31.394043	25.686035	31.394043
31.394043	22.424316	31.394043
30.578613	15.493164	30.578613
31.801758	20.385742	31.801758
32.617187	19.162598	32.617187
36.286621	19.162598	36.286621
39.548340	27.724609	39.548340
35.471191	27.316895	35.471191
36.286621	34.248047	36.286621
35.878906	36.286621	35.878906
32.209473	45.664062	32.209473
30.578613	40.363770	30.578613
31.394043	35.878906	31.394043
29.763184	33.024902	29.763184
29.355469	24.870605	29.355469
21.201172	26.909180	21.201172
18.754883	22.424316	18.754883
20.385742	20.793457	20.385742
17.124023	24.055176	17.124023
23.647461	24.055176	23.647461
27.316895	19.162598	27.316895
32.617187	18.347168	32.617187
35.878906	15.085449	35.878906
37.102051	24.870605	37.102051
38.325195	25.278320	38.325195
33.432617	31.801758	33.432617
32.209473	38.732910	32.209473
30.578613	32.617187	30.578613
28.540039	29.763184	28.540039
24.462891	33.432617	24.462891
19.570313	25.686035	19.570313
23.647461	25.686035	23.647461
24.870605	21.201172	24.870605
31.801758	19.162598	31.801758
30.578613	14.270020	30.578613
30.578613	16.716309	30.578613
31.394043	15.493164	31.394043
29.763184	13.046875	29.763184
31.801758	13.046875	31.801758
29.355469	13.046875	29.355469
30.578613	18.347168	30.578613
29.355469	16.308594	29.355469
25.278320	27.316895	25.278320
19.162598	24.055176	19.162598
16.716309	24.870605	16.716309
16.308594	26.909180	16.308594
16.308594	19.162598	16.308594
20.385742	19.978027	20.385742
21.201172	18.347168	21.201172
25.278320	14.270020	25.278320
28.947754	10.600586	28.947754
25.278320	13.046875	25.278320
24.462891	19.162598	24.462891
27.316895	17.531738	27.316895
21.608887	24.870605	21.608887
22.832031	25.686035	22.832031
18.754883	29.355469	18.754883
16.716309	33.432617	16.716309
15.085449	38.732910	15.085449
15.900879	31.801758	15.900879
11.823730	31.801758	11.823730
13.454590	31.801758	13.454590
13.454590	24.055176	13.454590
17.124023	25.278320	17.124023
19.570313	19.978027	19.570313
16.308594	15.085449	16.308594
18.754883	11.008301	18.754883
23.647461	20.793457	23.647461
18.754883	13.454590	18.754883
16.716309	19.570313	16.716309
11.008301	22.424316	11.008301
10.600586	24.462891	10.600586
13.454590	27.724609	13.454590
16.308594	31.801758	16.308594
21.201172	37.509766	21.201172
20.793457	30.986328	20.793457
19.570313	29.763184	19.570313
13.454590	27.316895	13.454590
17.531738	22.424316	17.531738
15.493164	22.424316	15.493164
20.793457	19.570313	20.793457
23.239746	17.531738	23.239746
25.686035	15.900879	25.686035
24.462891	17.531738	24.462891
32.209473	19.978027	32.209473
22.424316	22.832031	22.424316
26.501465	29.763184	26.501465
16.308594	29.355469	16.308594
15.085449	30.578613	15.085449
13.454590	31.801758	13.454590
12.639160	35.063477	12.639160
12.639160	31.394043	12.639160
7.746582	30.986328	7.746582
10.600586	30.986328	10.600586
12.231445	27.724609	12.231445
15.493164	24.870605	15.493164
13.454590	23.647461	13.454590
11.416016	24.055176	11.416016
11.416016	23.239746	11.416016
10.600586	26.909180	10.600586
14.677734	32.617187	14.677734
9.785156	29.355469	9.785156
6.523437	39.140625	6.523437
6.931152	34.248047	6.931152
3.669434	35.471191	3.669434
2.446289	39.956055	2.446289
4.077148	45.256348	4.077148
4.484863	36.286621	4.484863
7.746582	35.878906	7.746582
10.600586	33.432617	10.600586
13.046875	33.024902	13.046875
11.416016	31.801758	11.416016
9.377441	30.986328	9.377441
7.338867	27.724609	7.338867
2.854004	25.686035	2.854004
4.484863	26.909180	4.484863
0.815430	33.432617	0.815430
-2.854004	26.501465	-2.854004
0.407715	35.471191	0.407715
-1.630859	31.394043	-1.630859
0.000000	28.947754	0.000000
-2.854004	31.801758	-2.854004
-4.077148	40.363770	-4.077148
-8.969727	35.471191	-8.969727
-11.416016	35.878906	-11.416016
-11.008301	32.617187	-11.008301
-8.969727	26.909180	-8.969727
-2.446289	28.947754	-2.446289
0.407715	26.501465	0.407715
0.815430	24.462891	0.815430
-3.261719	18.754883	-3.261719
-1.223145	20.793457	-1.223145
-4.484863	22.424316	-4.484863
-4.484863	23.647461	-4.484863
-5.708008	25.686035	-5.708008
-7.746582	25.686035	-7.746582
-19.570313	28.947754	-19.570313
-30.986328	35.471191	-30.986328
-33.024902	33.432617	-33.024902
-30.986328	32.209473	-30.986328
-32.209473	26.909180	-32.209473
-26.501465	25.686035	-26.501465
-23.239746	17.531738	-23.239746
-17.124023	13.046875	-17.124023
-15.900879	12.639160	-15.900879
-16.716309	8.562012	-16.716309
-17.531738	5.708008	-17.531738
-22.424316	17.124023	-22.424316
-15.085449	19.570313	-15.085449
-19.162598	19.162598	-19.162598
-17.124023	18.347168	-17.124023
-15.900879	21.608887	-15.900879
-19.162598	27.724609	-19.162598
-21.201172	37.509766	-21.201172
-21.608887	45.664062	-21.608887
-22.832031	32.617187	-22.832031
-21.608887	31.394043	-21.608887
-23.647461	25.278320	-23.647461
-21.608887	23.239746	-21.608887
-23.239746	17.531738	-23.239746
-19.978027	15.493164	-19.978027
-19.162598	7.746582	-19.162598
-24.870605	1.630859	-24.870605
-21.608887	3.261719	-21.608887
-25.686035	5.708008	-25.686035
-25.278320	7.746582	-25.278320
-30.578613	14.677734	-30.578613
-28.947754	17.531738	-28.947754
-30.986328	25.686035	-30.986328
-31.394043	25.686035	-31.394043
-28.540039	33.024902	-28.540039
-32.617187	33.432617	-32.617187
-26.909180	29.763184	-26.909180
-29.355469	26.909180	-29.355469
-28.132324	20.385742	-28.132324
-28.132324	17.124023	-28.132324
-28.540039	14.677734	-28.540039
-31.394043	10.600586	-31.394043
-27.724609	8.969727	-27.724609
-27.724609	14.677734	-27.724609
-26.909180	13.046875	-26.909180
-21.608887	15.085449	-21.608887
-28.540039	19.978027	-28.540039
-34.655762	22.832031	-34.655762
-42.810059	21.201172	-42.810059
-39.956055	23.239746	-39.956055
-42.810059	35.878906	-42.810059
-47.294922	28.947754	-47.294922
-52.187500	28.947754	-52.187500
-47.294922	22.424316	-47.294922
-43.217773	21.201172	-43.217773
-37.102051	18.347168	-37.102051
-33.432617	13.454590	-33.432617
-33.840332	10.600586	-33.840332
-31.394043	3.669434	-31.394043
-37.509766	8.154297	-37.509766
-37.509766	14.677734	-37.509766
-36.694336	14.677734	-36.694336
-37.509766	21.201172	-37.509766
-35.063477	27.724609	-35.063477
-40.363770	23.239746	-40.363770
-39.956055	26.909180	-39.956055
-44.848633	34.248047	-44.848633
-42.810059	25.278320	-42.810059
-40.363770	27.316895	-40.363770
-39.548340	26.501465	-39.548340
-39.956055	22.424316	-39.956055
-40.363770	21.608887	-40.363770
-35.063477	19.162598	-35.063477
-38.732910	14.270020	-38.732910
-38.732910	11.416016	-38.732910
-37.102051	11.416016	-37.102051
-42.402344	12.231445	-42.402344
-38.732910	14.677734	-38.732910
-40.363770	16.716309	-40.363770
-41.586914	16.308594	-41.586914
-39.548340	21.201172	-39.548340
-42.810059	24.462891	-42.810059
-44.440918	27.316895	-44.440918
-43.217773	24.870605	-43.217773
-45.256348	23.239746	-45.256348
-50.556641	22.832031	-50.556641
-50.556641	24.055176	-50.556641
-48.518066	19.978027	-48.518066
-46.479492	15.085449	-46.479492
-44.033203	6.523437	-44.033203
-42.402344	2.854004	-42.402344
-40.363770	6.523437	-40.363770
-39.548340	7.746582	-39.548340
-40.363770	11.008301	-40.363770
-38.732910	10.600586	-38.732910
-44.033203	15.900879	-44.033203
-45.256348	21.608887	-45.256348
-42.810059	24.870605	-42.810059
-44.440918	28.132324	-44.440918
-48.518066	22.424316	-48.518066
-53.002930	22.424316	-53.002930
-58.303223	19.162598	-58.303223
-62.380371	12.231445	-62.380371
-59.118652	10.600586	-59.118652
-55.449219	10.600586	-55.449219
-47.294922	7.338867	-47.294922
-39.548340	3.669434	-39.548340
-36.694336	8.154297	-36.694336
-31.801758	11.416016	-31.801758
-30.986328	14.677734	-30.986328
-36.286621	18.347168	-36.286621
-41.586914	21.201172	-41.586914
-45.256348	18.347168	-45.256348
-52.187500	21.608887	-52.187500
-49.741211	25.686035	-49.741211
-49.741211	17.124023	-49.741211
-45.664062	18.754883	-45.664062
-45.664062	20.793457	-45.664062
-43.625488	16.308594	-43.625488
-40.771484	14.270020	-40.771484
-36.286621	8.562012	-36.286621
-40.363770	7.338867	-40.363770
-39.140625	3.669434	-39.140625
-40.363770	8.562012	-40.363770
-39.548340	6.931152	-39.548340
-40.771484	3.669434	-40.771484
-41.179199	9.377441	-41.179199
-40.363770	8.562012	-40.363770
-39.548340	7.746582	-39.548340
-43.625488	17.124023	-43.625488
-44.848633	24.055176	-44.848633
-45.256348	20.793457	-45.256348
-44.033203	18.754883	-44.033203
-46.479492	18.347168	-46.479492
-44.848633	12.231445	-44.848633
-42.810059	8.562012	-42.810059
-41.179199	6.931152	-41.179199
-44.033203	3.669434	-44.033203
-42.810059	0.000000	-42.810059
-41.179199	2.854004	-41.179199
-38.325195	4.077148	-38.325195
-33.840332	5.708008	-33.840332
-32.617187	16.716309	-32.617187
-31.801758	14.677734	-31.801758
-33.840332	16.716309	-33.840332
-35.471191	21.608887	-35.471191
-37.509766	22.424316	-37.509766
-41.586914	16.716309	-41.586914
-40.363770	17.124023	-40.363770
-38.325195	14.677734	-38.325195
-41.586914	9.377441	-41.586914
-35.471191	9.377441	-35.471191
-35.878906	8.562012	-35.878906
-36.694336	8.562012	-36.694336
-38.732910	4.484863	-38.732910
-37.509766	13.046875	-37.509766
-38.732910	9.377441	-38.732910
-34.655762	12.231445	-34.655762
-32.617187	15.085449	-32.617187
-40.363770	16.308594	-40.363770
-38.732910	18.347168	-38.732910
-39.548340	25.278320	-39.548340
-37.509766	31.801758	-37.509766
-39.548340	21.608887	-39.548340
-42.810059	18.347168	-42.810059
-41.179199	19.162598	-41.179199
-41.179199	9.785156	-41.179199
-37.509766	8.562012	-37.509766
-36.694336	11.416016	-36.694336
-36.694336	7.746582	-36.694336
-36.694336	4.892578	-36.694336
-32.209473	9.377441	-32.209473
-31.801758	12.231445	-31.801758
-27.724609	12.231445	-27.724609
-31.394043	16.716309	-31.394043
-29.355469	22.424316	-29.355469
-28.540039	21.201172	-28.540039
-29.355469	27.316895	-29.355469
-29.355469	32.209473	-29.355469
-33.024902	24.870605	-33.024902
-35.878906	29.763184	-35.878906
-37.509766	25.686035	-37.509766
-42.402344	22.832031	-42.402344
-32.617187	18.754883	-32.617187
-33.840332	11.823730	-33.840332
-31.801758	12.639160	-31.801758
-28.947754	12.231445	-28.947754
-27.724609	15.085449	-27.724609
-25.278320	11.416016	-25.278320
-26.501465	10.600586	-26.501465
-25.686035	15.493164	-25.686035
-26.909180	15.493164	-26.909180
-26.909180	17.124023	-26.909180
-28.132324	19.162598	-28.132324
-27.724609	26.909180	-27.724609
-31.801758	23.239746	-31.801758
-30.986328	22.424316	-30.986328
-38.732910	23.239746	-38.732910
-39.140625	15.493164	-39.140625
-32.617187	16.308594	-32.617187
-30.986328	8.969727	-30.986328
-24.055176	4.484863	-24.055176
-25.278320	0.815430	-25.278320
-21.608887	8.969727	-21.608887
-19.162598	8.969727	-19.162598
-17.531738	11.823730	-17.531738
-15.900879	16.716309	-15.900879
-17.531738	22.424316	-17.531738
-18.754883	21.608887	-18.754883
-19.162598	23.239746	-19.162598
-19.978027	30.986328	-19.978027
-21.201172	19.162598	-21.201172
-25.686035	24.055176	-25.686035
-23.239746	19.978027	-23.239746
-24.870605	17.124023	-24.870605
-24.870605	17.531738	-24.870605
-21.201172	14.677734	-21.201172
-23.647461	11.008301	-23.647461
-19.978027	5.300293	-19.978027
-19.570313	13.454590	-19.570313
-19.162598	14.677734	-19.162598
-17.531738	14.677734	-17.531738
-15.900879	20.793457	-15.900879
-15.085449	22.424316	-15.085449
-17.531738	25.278320	-17.531738
-17.531738	24.462891	-17.531738
-19.162598	30.986328	-19.162598
-24.870605	18.347168	-24.870605
-22.424316	22.832031	-22.424316
-24.870605	26.909180	-24.870605
-25.686035	19.162598	-25.686035
-20.793457	18.754883	-20.793457
-19.978027	12.231445	-19.978027
-16.308594	5.300293	-16.308594
-17.124023	-2.446289	-17.124023
-15.085449	8.562012	-15.085449
-15.900879	6.931152	-15.900879
-13.454590	7.746582	-13.454590
-11.823730	13.046875	-11.823730
-8.154297	14.677734	-8.154297
-10.600586	22.424316	-10.600586
-12.639160	24.462891	-12.639160
-11.823730	27.724609	-11.823730
-12.639160	16.308594	-12.639160
-15.085449	15.493164	-15.085449
-8.154297	10.600586	-8.154297
-8.562012	8.154297	-8.562012
-6.523437	7.746582	-6.523437
-5.300293	9.377441	-5.300293
-3.261719	5.300293	-3.261719
-7.338867	4.484863	-7.338867
-3.669434	12.639160	-3.669434
-4.892578	11.416016	-4.892578
-4.484863	12.231445	-4.484863
-3.261719	14.677734	-3.261719
-3.261719	14.677734	-3.261719
4.484863	15.900879	4.484863
5.708008	23.647461	5.708008
4.484863	26.909180	4.484863
3.669434	20.793457	3.669434
-0.815430	21.608887	-0.815430
-1.630859	21.608887	-1.630859
-4.892578	19.162598	-4.892578
-3.261719	18.347168	-3.261719
0.000000	19.978027	0.000000
-0.815430	17.124023	-0.815430
0.000000	11.823730	0.000000
-3.261719	20.793457	-3.261719
-3.261719	17.531738	-3.261719
-7.338867	22.424316	-7.338867
-8.154297	24.055176	-8.154297
-9.785156	24.055176	-9.785156
-8.154297	27.316895	-8.154297
-7.338867	32.617187	-7.338867
-8.562012	37.102051	-8.562012
-9.377441	29.355469	-9.377441
-6.523437	29.763184	-6.523437
-7.338867	27.724609	-7.338867
-5.300293	25.686035	-5.300293
-1.630859	23.239746	-1.630859
-0.815430	24.462891	-0.815430
-0.815430	16.308594	-0.815430
-1.223145	8.562012	-1.223145
-2.446289	14.677734	-2.446289
-0.815430	19.978027	-0.815430
-2.446289	19.162598	-2.446289
3.669434	25.278320	3.669434
3.261719	27.724609	3.261719
-0.407715	22.832031	-0.407715
0.407715	24.055176	0.407715
3.669434	28.540039	3.669434
3.261719	25.686035	3.261719
0.000000	23.239746	0.000000
-0.815430	25.278320	-0.815430
0.000000	21.201172	0.000000
0.815430	24.055176	0.815430
0.000000	19.978027	0.000000
0.815430	17.531738	0.815430
-0.815430	9.785156	-0.815430
4.077148	18.347168	4.077148
0.000000	22.424316	0.000000
0.000000	20.793457	0.000000
0.000000	25.278320	0.000000
-2.446289	28.132324	-2.446289
-1.630859	25.686035	-1.630859
3.669434	32.209473	3.669434
9.377441	31.801758	9.377441
7.746582	27.724609	7.746582
4.484863	28.132324	4.484863
4.484863	25.686035	4.484863
0.000000	24.055176	0.000000
5.300293	23.239746	5.300293
2.854004	24.870605	2.854004
1.630859	18.754883	1.630859
3.669434	14.270020	3.669434
7.338867	17.124023	7.338867
12.639160	16.716309	12.639160
15.900879	14.270020	15.900879
13.454590	22.424316	13.454590
12.231445	27.724609	12.231445
14.270020	30.986328	14.270020
4.484863	33.432617	4.484863
-1.223145	35.471191	-1.223145
-5.708008	28.947754	-5.708008
-4.077148	28.132324	-4.077148
-3.261719	26.909180	-3.261719
3.669434	19.570313	3.669434
8.562012	22.424316	8.562012
9.377441	23.647461	9.377441
13.454590	19.162598	13.454590
13.454590	16.716309	13.454590
15.900879	23.647461	15.900879
14.677734	20.385742	14.677734
15.493164	19.570313	15.493164
13.454590	23.239746	13.454590
10.600586	24.055176	10.600586
13.046875	30.578613	13.046875
6.931152	31.394043	6.931152
8.562012	34.655762	8.562012
7.746582	28.132324	7.746582
7.746582	30.578613	7.746582
7.338867	24.462891	7.338867
5.300293	21.608887	5.300293
9.377441	19.978027	9.377441
10.600586	18.347168	10.600586
11.008301	15.085449	11.008301
13.454590	9.377441	13.454590
13.046875	15.900879	13.046875
11.823730	14.677734	11.823730
11.416016	19.978027	11.416016
6.931152	25.278320	6.931152
11.008301	25.686035	11.008301
10.600586	27.316895	10.600586
9.377441	34.248047	9.377441
12.639160	35.471191	12.639160
11.008301	27.724609	11.008301
12.639160	28.947754	12.639160
7.338867	24.055176	7.338867
13.454590	19.978027	13.454590
13.454590	23.239746	13.454590
12.231445	20.385742	12.231445
9.377441	14.270020	9.377441
8.154297	13.046875	8.154297
5.300293	13.454590	5.300293
9.377441	16.308594	9.377441
7.746582	18.347168	7.746582
12.639160	23.647461	12.639160
13.454590	21.201172	13.454590
15.493164	21.201172	15.493164
15.493164	29.355469	15.493164
16.716309	28.947754	16.716309
13.454590	24.462891	13.454590
11.416016	23.239746	11.416016
9.377441	22.832031	9.377441
12.231445	18.347168	12.231445
14.270020	15.493164	14.270020
12.639160	15.085449	12.639160
10.600586	13.046875	10.600586
13.454590	13.046875	13.454590
15.085449	18.347168	15.085449
19.570313	17.124023	19.570313
19.978027	17.124023	19.978027
21.201172	22.424316	21.201172
21.608887	25.278320	21.608887
17.124023	27.316895	17.124023
19.570313	28.540039	19.570313
15.900879	32.617187	15.900879
12.639160	23.239746	12.639160
10.600586	26.909180	10.600586
11.008301	24.870605	11.008301
13.046875	19.162598	13.046875
13.046875	18.754883	13.046875
14.270020	13.454590	14.270020
15.900879	11.823730	15.900879
17.124023	8.154297	17.124023
22.424316	15.900879	22.424316
20.385742	18.347168	20.385742
25.278320	15.493164	25.278320
25.278320	21.608887	25.278320
23.647461	20.385742	23.647461
22.832031	21.201172	22.832031
20.385742	22.832031	20.385742
19.570313	28.947754	19.570313
23.647461	28.540039	23.647461
17.124023	26.909180	17.124023
15.900879	23.239746	15.900879
19.162598	17.124023	19.162598
18.347168	18.347168	18.347168
24.055176	15.493164	24.055176
26.909180	12.639160	26.909180
21.608887	8.969727	21.608887
26.501465	14.677734	26.501465
27.316895	13.046875	27.316895
27.724609	14.270020	27.724609
26.909180	16.308594	26.909180
23.647461	12.639160	23.647461
23.647461	20.793457	23.647461
25.278320	22.424316	25.278320
24.870605	31.801758	24.870605
23.239746	27.316895	23.239746
20.793457	29.763184	20.793457
18.754883	26.909180	18.754883
21.201172	23.647461	21.201172
21.201172	20.385742	21.201172
27.316895	15.900879	27.316895
25.686035	15.493164	25.686035
25.278320	8.562012	25.278320
27.316895	14.270020	27.316895
26.501465	12.639160	26.501465
28.132324	13.454590	28.132324
25.686035	22.424316	25.686035
22.424316	22.832031	22.424316
24.462891	24.055176	24.462891
22.424316	31.801758	22.424316
26.501465	33.432617	26.501465
23.239746	30.986328	23.239746
20.385742	27.724609	20.385742
21.201172	26.501465	21.201172
17.531738	21.608887	17.531738
16.308594	19.978027	16.308594
15.900879	15.493164	15.900879
16.308594	8.562012	16.308594
18.347168	0.000000	18.347168
19.978027	7.338867	19.978027
23.647461	8.562012	23.647461
23.239746	12.231445	23.239746
28.132324	19.978027	28.132324
18.347168	25.686035	18.347168
11.823730	28.132324	11.823730
11.416016	32.617187	11.416016
9.785156	37.509766	9.785156
9.785156	26.909180	9.785156
15.493164	28.132324	15.493164
18.347168	26.501465	18.347168
20.385742	20.793457	20.385742
25.278320	19.978027	25.278320
25.686035	15.900879	25.686035
28.132324	8.969727	28.132324
24.870605	3.669434	24.870605
30.578613	7.746582	30.578613
27.316895	11.008301	27.316895
28.132324	11.823730	28.132324
23.647461	20.793457	23.647461
24.870605	22.424316	24.870605
24.055176	24.055176	24.055176
25.686035	25.278320	25.686035
29.355469	32.617187	29.355469
28.540039	26.909180	28.540039
31.394043	25.686035	31.394043
29.763184	24.055176	29.763184
28.947754	21.201172	28.947754
31.801758	24.055176	31.801758
34.248047	19.162598	34.248047
34.248047	17.531738	34.248047
32.209473	12.231445	32.209473
32.209473	18.754883	32.209473
33.024902	16.716309	33.024902
30.578613	17.124023	30.578613
35.063477	27.724609	35.063477
28.540039	32.209473	28.540039
31.801758	37.102051	31.801758
26.501465	33.024902	26.501465
25.278320	37.509766	25.278320
22.832031	30.578613	22.832031
24.870605	32.209473	24.870605
28.132324	28.132324	28.132324
23.239746	28.132324	23.239746
26.501465	28.540039	26.501465
20.793457	28.132324	20.793457
20.385742	21.608887	20.385742
20.793457	19.162598	20.793457
23.239746	24.870605	23.239746
25.686035	19.978027	25.686035
26.909180	24.055176	26.909180
26.501465	24.870605	26.501465
27.316895	29.763184	27.316895
27.724609	32.209473	27.724609
28.132324	36.286621	28.132324
25.686035	38.325195	25.686035
28.540039	31.801758	28.540039
23.647461	30.986328	23.647461
27.724609	30.578613	27.724609
26.501465	28.540039	26.501465
29.355469	28.947754	29.355469
29.355469	21.201172	29.355469
30.986328	19.162598	30.986328
30.578613	13.046875	30.578613
35.471191	18.754883	35.471191
37.102051	19.978027	37.102051
33.024902	21.201172	33.024902
33.432617	21.201172	33.432617
36.286621	23.647461	36.286621
32.617187	30.578613	32.617187
38.325195	31.801758	38.325195
39.140625	35.878906	39.140625
35.471191	28.132324	35.471191
35.471191	26.909180	35.471191
32.209473	30.986328	32.209473
33.024902	25.278320	33.024902
30.578613	19.570313	30.578613
30.578613	16.716309	30.578613
26.501465	8.562012	26.501465
26.501465	7.746582	26.501465
29.763184	13.454590	29.763184
31.394043	14.677734	31.394043
33.432617	18.347168	33.432617
31.394043	21.201172	31.394043
27.724609	26.909180	27.724609
22.424316	33.024902	22.424316
21.608887	37.509766	21.608887
18.754883	38.325195	18.754883
20.385742	33.432617	20.385742
25.278320	26.909180	25.278320
28.947754	27.724609	28.947754
37.102051	24.462891	37.102051
35.471191	21.201172	35.471191
36.694336	20.793457	36.694336
32.209473	17.531738	32.209473
32.209473	13.046875	32.209473
35.063477	19.978027	35.063477
30.578613	19.978027	30.578613
36.286621	23.647461	36.286621
35.063477	26.909180	35.063477
37.509766	30.986328	37.509766
30.578613	30.986328	30.578613
34.248047	37.102051	34.248047
29.355469	38.732910	29.355469
28.132324	36.286621	28.132324
25.686035	35.878906	25.686035
30.578613	29.355469	30.578613
28.947754	31.801758	28.947754
29.355469	27.316895	29.355469
31.394043	29.763184	31.394043
29.763184	20.385742	29.763184
32.209473	22.424316	32.209473
34.248047	19.978027	34.248047
30.578613	23.239746	30.578613
25.686035	22.424316	25.686035
18.754883	25.686035	18.754883
22.424316	28.132324	22.424316
28.132324	27.316895	28.132324
33.024902	33.432617	33.024902
34.248047	35.063477	34.248047
33.432617	29.763184	33.432617
34.248047	35.878906	34.248047
33.024902	31.801758	33.024902
32.209473	24.055176	32.209473
35.878906	24.870605	35.878906
37.102051	22.832031	37.102051
37.102051	15.085449	37.102051
38.325195	15.493164	38.325195
35.063477	19.978027	35.063477
34.248047	18.347168	34.248047
32.209473	24.870605	32.209473
34.655762	26.501465	34.655762
31.801758	27.316895	31.801758
35.878906	32.209473	35.878906
30.578613	32.617187	30.578613
29.355469	39.548340	29.355469
27.316895	31.394043	27.316895
31.394043	30.578613	31.394043
27.316895	26.909180	27.316895
26.501465	25.278320	26.501465
29.763184	24.055176	29.763184
33.024902	24.870605	33.024902
34.248047	17.124023	34.248047
33.024902	14.677734	33.024902
34.248047	19.978027	34.248047
32.617187	22.424316	32.617187
30.578613	19.978027	30.578613
32.617187	25.686035	32.617187
30.578613	24.055176	30.578613
31.394043	24.055176	31.394043
30.986328	33.024902	30.986328
31.394043	39.140625	31.394043
32.209473	33.432617	32.209473
29.763184	33.024902	29.763184
29.355469	26.909180	29.355469
31.801758	22.832031	31.801758
32.209473	24.055176	32.209473
34.248047	18.754883	34.248047
31.394043	14.677734	31.394043
31.394043	11.008301	31.394043
33.024902	12.231445	33.024902
30.578613	10.600586	30.578613
30.578613	11.008301	30.578613
32.617187	14.677734	32.617187
32.209473	16.308594	32.209473
37.102051	24.462891	37.102051
39.956055	32.617187	39.956055
35.471191	35.878906	35.471191
37.102051	27.316895	37.102051
32.209473	28.947754	32.209473
33.432617	24.462891	33.432617
31.801758	24.055176	31.801758
33.432617	19.978027	33.432617
35.063477	20.793457	35.063477
37.509766	17.531738	37.509766
34.655762	17.124023	34.655762
37.509766	23.647461	37.509766
34.655762	23.239746	34.655762
33.024902	24.055176	33.024902
33.024902	27.316895	33.024902
33.024902	25.278320	33.024902
36.694336	25.686035	36.694336
36.694336	30.986328	36.694336
39.140625	35.878906	39.140625
35.471191	31.801758	35.471191
33.024902	34.248047	33.024902
34.655762	32.617187	34.655762
35.471191	28.947754	35.471191
38.732910	26.501465	38.732910
39.140625	24.870605	39.140625
37.102051	23.239746	37.102051
38.325195	18.754883	38.325195
37.102051	27.724609	37.102051
37.102051	21.608887	37.102051
39.548340	22.424316	39.548340
44.033203	31.801758	44.033203
37.102051	25.278320	37.102051
40.771484	29.763184	40.771484
33.432617	37.509766	33.432617
36.286621	38.325195	36.286621
34.248047	32.617187	34.248047
32.617187	32.617187	32.617187
30.578613	29.355469	30.578613
28.132324	21.201172	28.132324
28.132324	15.493164	28.132324
31.394043	10.600586	31.394043
31.394043	18.347168	31.394043
34.248047	13.046875	34.248047
31.394043	18.347168	31.394043
35.471191	14.677734	35.471191
36.694336	18.754883	36.694336
35.471191	19.162598	35.471191
37.509766	22.424316	37.509766
33.432617	27.724609	33.432617
35.878906	29.763184	35.878906
36.286621	34.655762	36.286621
33.024902	26.501465	33.024902
37.102051	26.909180	37.102051
34.655762	22.832031	34.655762
34.655762	17.531738	34.655762
36.694336	17.531738	36.694336
35.878906	14.677734	35.878906
37.509766	13.046875	37.509766
33.024902	12.639160	33.024902
38.325195	18.347168	38.325195
35.063477	22.424316	35.063477
37.102051	21.608887	37.102051
39.140625	24.870605	39.140625
36.286621	23.239746	36.286621
36.694336	25.278320	36.694336
32.617187	34.655762	32.617187
36.286621	40.771484	36.286621
33.024902	32.209473	33.024902
38.325195	32.209473	38.325195
40.363770	25.278320	40.363770
44.440918	21.201172	44.440918
44.848633	19.978027	44.848633
49.741211	17.531738	49.741211
44.033203	14.677734	44.033203
45.256348	11.416016	45.256348
44.033203	16.716309	44.033203
46.887207	19.570313	46.887207
39.956055	24.055176	39.956055
47.294922	24.870605	47.294922
43.217773	27.724609	43.217773
42.402344	30.986328	42.402344
38.732910	34.655762	38.732910
41.179199	32.617187	41.179199
37.509766	31.801758	37.509766
37.102051	25.278320	37.102051
38.325195	31.801758	38.325195
39.956055	27.316895	39.956055
41.179199	28.132324	41.179199
42.402344	21.201172	42.402344
41.179199	16.716309	41.179199
43.625488	15.493164	43.625488
45.256348	20.385742	45.256348
44.033203	18.754883	44.033203
41.179199	19.162598	41.179199
43.217773	24.055176	43.217773
41.586914	23.647461	41.586914
39.956055	28.947754	39.956055
40.771484	35.878906	40.771484
44.033203	38.732910	44.033203
39.956055	31.801758	39.956055
43.217773	33.432617	43.217773
39.956055	25.278320	39.956055
40.363770	22.424316	40.363770
40.363770	17.124023	40.363770
39.956055	16.308594	39.956055
41.179199	17.124023	41.179199
45.664062	11.416016	45.664062
43.625488	18.347168	43.625488
48.925781	13.046875	48.925781
47.294922	19.570313	47.294922
47.294922	25.278320	47.294922
47.294922	26.909180	47.294922
41.586914	31.801758	41.586914
44.033203	31.801758	44.033203
41.179199	37.509766	41.179199
36.694336	26.909180	36.694336
39.140625	26.501465	39.140625
35.878906	25.686035	35.878906
39.140625	17.124023	39.140625
37.102051	16.716309	37.102051
36.286621	17.124023	36.286621
38.732910	10.600586	38.732910
36.286621	7.338867	36.286621
43.217773	20.385742	43.217773
42.402344	19.162598	42.402344
42.402344	24.055176	42.402344
42.402344	25.686035	42.402344
38.325195	24.462891	38.325195
39.956055	27.724609	39.956055
34.655762	29.763184	34.655762
34.655762	36.286621	34.655762
34.655762	27.724609	34.655762
32.209473	31.801758	32.209473
36.286621	27.724609	36.286621
33.024902	24.870605	33.024902
36.694336	24.055176	36.694336
35.063477	19.978027	35.063477
35.878906	16.308594	35.878906
42.402344	11.823730	42.402344
42.402344	16.716309	42.402344
43.625488	15.493164	43.625488
39.140625	24.055176	39.140625
38.325195	28.947754	38.325195
28.132324	31.801758	28.132324
27.316895	32.617187	27.316895
30.578613	36.694336	30.578613
31.801758	39.140625	31.801758
39.548340	29.355469	39.548340
43.625488	32.209473	43.625488
48.110352	30.986328	48.110352
44.033203	23.239746	44.033203
43.217773	24.870605	43.217773
45.664062	19.978027	45.664062
44.440918	12.231445	44.440918
43.217773	9.377441	43.217773
44.848633	16.308594	44.848633
40.771484	15.085449	40.771484
45.256348	17.124023	45.256348
41.586914	25.686035	41.586914
44.848633	25.686035	44.848633
41.179199	30.986328	41.179199
39.140625	34.248047	39.140625
37.102051	39.140625	37.102051
37.509766	31.801758	37.509766
38.732910	31.801758	38.732910
42.402344	27.316895	42.402344
44.848633	25.278320	44.848633
44.033203	25.278320	44.033203
42.810059	25.686035	42.810059
42.402344	17.531738	42.402344
35.063477	14.677734	35.063477
38.732910	19.978027	38.732910
41.179199	20.385742	41.179199
43.217773	25.686035	43.217773
44.033203	26.501465	44.033203
44.440918	25.686035	44.440918
45.664062	26.501465	45.664062
41.179199	30.986328	41.179199
42.810059	33.432617	42.810059
35.471191	27.316895	35.471191
39.956055	30.986328	39.956055
38.325195	27.316895	38.325195
37.102051	25.278320	37.102051
38.732910	24.055176	38.732910
42.402344	24.870605	42.402344
38.325195	17.124023	38.325195
39.956055	13.046875	39.956055
40.771484	19.162598	40.771484
41.586914	10.600586	41.586914
42.810059	13.046875	42.810059
39.956055	16.308594	39.956055
40.771484	20.385742	40.771484
40.771484	23.239746	40.771484
45.664062	30.986328	45.664062
47.702637	37.509766	47.702637
48.925781	37.509766	48.925781
49.741211	34.248047	49.741211
51.372070	33.432617	51.372070
47.294922	24.870605	47.294922
48.518066	28.947754	48.518066
45.664062	23.647461	45.664062
48.925781	19.162598	48.925781
47.294922	15.493164	47.294922
48.518066	19.570313	48.518066
50.964355	23.239746	50.964355
52.595215	27.316895	52.595215
50.964355	28.132324	50.964355
49.741211	27.316895	49.741211
43.217773	29.763184	43.217773
46.887207	34.248047	46.887207
41.179199	33.432617	41.179199
44.848633	32.617187	44.848633
38.325195	32.617187	38.325195
37.509766	35.063477	37.509766
37.102051	33.024902	37.102051
36.694336	33.024902	36.694336
39.140625	24.870605	39.140625
40.363770	20.793457	40.363770
43.217773	15.900879	43.217773
44.033203	23.239746	44.033203
42.402344	21.201172	42.402344
42.402344	23.239746	42.402344
45.664062	29.763184	45.664062
44.033203	29.355469	44.033203
43.625488	34.655762	43.625488
43.625488	37.102051	43.625488
41.179199	43.217773	41.179199
37.102051	36.286621	37.102051
35.471191	40.363770	35.471191
31.394043	36.694336	31.394043
32.209473	30.986328	32.209473
31.801758	28.540039	31.801758
39.956055	24.870605	39.956055
44.033203	19.978027	44.033203
48.110352	18.347168	48.110352
52.187500	19.978027	52.187500
55.856934	21.201172	55.856934
53.002930	23.239746	53.002930
53.410645	27.724609	53.410645
50.964355	28.540039	50.964355
50.556641	32.617187	50.556641
53.002930	42.402344	53.002930
52.187500	42.810059	52.187500
48.925781	36.694336	48.925781
44.848633	36.286621	44.848633
44.848633	30.986328	44.848633
48.110352	26.909180	48.110352
49.741211	25.686035	49.741211
49.333496	23.647461	49.333496
50.556641	21.201172	50.556641
47.702637	15.493164	47.702637
44.440918	24.870605	44.440918
45.664062	22.424316	45.664062
44.033203	27.724609	44.033203
48.925781	27.724609	48.925781
48.925781	29.763184	48.925781
47.702637	26.909180	47.702637
52.187500	30.986328	52.187500
45.256348	35.878906	45.256348
42.402344	29.355469	42.402344
38.325195	38.732910	38.325195
31.394043	34.248047	31.394043
28.540039	26.909180	28.540039
33.024902	25.278320	33.024902
41.586914	22.424316	41.586914
43.625488	19.162598	43.625488
48.925781	17.531738	48.925781
48.110352	24.055176	48.110352
48.925781	23.239746	48.925781
50.556641	31.394043	50.556641
49.741211	31.801758	49.741211
49.741211	31.801758	49.741211
48.925781	35.878906	48.925781
48.925781	39.548340	48.925781
52.595215	42.402344	52.595215
51.779785	38.732910	51.779785
49.741211	41.179199	49.741211
44.033203	38.732910	44.033203
45.664062	33.432617	45.664062
44.848633	33.432617	44.848633
48.110352	27.724609	48.110352
47.702637	19.978027	47.702637
47.294922	20.385742	47.294922
50.964355	23.239746	50.964355
49.741211	27.316895	49.741211
55.856934	26.909180	55.856934
52.187500	34.655762	52.187500
50.964355	29.763184	50.964355
49.741211	32.617187	49.741211
48.925781	38.732910	48.925781
48.518066	38.732910	48.518066
39.956055	33.024902	39.956055
41.179199	26.909180	41.179199
43.217773	25.278320	43.217773
44.848633	26.501465	44.848633
45.256348	24.055176	45.256348
44.033203	28.947754	44.033203
44.848633	23.239746	44.848633
42.402344	21.608887	42.402344
43.217773	30.986328	43.217773
42.402344	23.647461	42.402344
45.664062	24.870605	45.664062
44.440918	29.763184	44.440918
47.294922	33.024902	47.294922
48.925781	32.209473	48.925781
53.818359	35.878906	53.818359
54.633789	39.140625	54.633789
54.633789	33.024902	54.633789
53.818359	37.509766	53.818359
51.779785	33.432617	51.779785
50.964355	29.355469	50.964355
50.964355	26.909180	50.964355
49.741211	24.055176	49.741211
51.779785	21.201172	51.779785
53.002930	18.347168	53.002930
55.856934	23.239746	55.856934
57.487793	22.424316	57.487793
59.118652	24.870605	59.118652
59.526367	27.724609	59.526367
58.710937	24.055176	58.710937
53.410645	24.870605	53.410645
51.779785	32.617187	51.779785
44.848633	32.209473	44.848633
41.179199	24.870605	41.179199
33.024902	33.432617	33.024902
34.655762	28.947754	34.655762
45.256348	26.909180	45.256348
49.741211	26.909180	49.741211
56.672363	21.608887	56.672363
57.487793	19.162598	57.487793
59.934082	12.231445	59.934082
59.934082	17.124023	59.934082
59.526367	17.124023	59.526367
59.934082	19.978027	59.934082
61.157227	24.055176	61.157227
55.041504	26.909180	55.041504
55.856934	27.316895	55.856934
56.264648	32.617187	56.264648
54.633789	33.432617	54.633789
53.410645	24.055176	53.410645
51.372070	22.424316	51.372070
52.187500	23.647461	52.187500
49.741211	24.462891	49.741211
48.110352	20.385742	48.110352
51.372070	14.270020	51.372070
51.779785	10.600586	51.779785
48.518066	9.377441	48.518066
51.779785	15.493164	51.779785
51.779785	14.677734	51.779785
53.818359	14.677734	53.818359
49.333496	15.900879	49.333496
52.595215	20.793457	52.595215
53.410645	19.978027	53.410645
53.818359	26.909180	53.818359
56.672363	25.686035	56.672363
55.041504	23.239746	55.041504
49.741211	29.763184	49.741211
50.964355	21.608887	50.964355
52.595215	19.162598	52.595215
48.925781	16.716309	48.925781
48.925781	13.046875	48.925781
47.294922	8.562012	47.294922
48.110352	4.484863	48.110352
53.002930	12.639160	53.002930
53.818359	12.639160	53.818359
55.041504	11.008301	55.041504
56.264648	18.347168	56.264648
53.410645	20.385742	53.410645
53.002930	24.462891	53.002930
53.818359	28.947754	53.818359
56.264648	34.655762	56.264648
55.041504	26.501465	55.041504
53.818359	29.355469	53.818359
53.818359	25.686035	53.818359
56.264648	24.055176	56.264648
53.410645	19.978027	53.410645
59.118652	19.162598	59.118652
53.818359	15.493164	53.818359
55.856934	15.085449	55.856934
57.487793	22.424316	57.487793
55.449219	22.424316	55.449219
52.595215	30.578613	52.595215
52.595215	34.655762	52.595215
49.741211	40.771484	49.741211
51.372070	42.810059	51.372070
46.887207	43.625488	46.887207
50.556641	42.810059	50.556641
47.702637	35.063477	47.702637
47.702637	34.655762	47.702637
46.887207	33.024902	46.887207
48.110352	28.947754	48.110352
46.887207	26.909180	46.887207
45.664062	25.686035	45.664062
49.741211	20.385742	49.741211
49.741211	17.124023	49.741211
55.856934	24.870605	55.856934
55.041504	24.870605	55.041504
55.041504	31.394043	55.041504
57.487793	35.878906	57.487793
55.856934	34.655762	55.856934
54.633789	35.878906	54.633789
51.779785	37.102051	51.779785
54.633789	34.655762	54.633789
49.741211	31.801758	49.741211
48.925781	30.986328	48.925781
48.518066	30.986328	48.518066
44.848633	26.909180	44.848633
45.664062	28.947754	45.664062
48.110352	25.278320	48.110352
47.294922	24.055176	47.294922
48.518066	25.278320	48.518066
50.556641	27.724609	50.556641
48.925781	26.909180	48.925781
51.372070	23.239746	51.372070
51.779785	23.647461	51.779785
50.964355	23.647461	50.964355
53.002930	23.239746	53.002930
52.595215	30.986328	52.595215
49.741211	32.209473	49.741211
42.402344	31.801758	42.402344
35.471191	32.617187	35.471191
41.179199	29.763184	41.179199
41.179199	24.055176	41.179199
42.810059	23.239746	42.810059
45.256348	21.608887	45.256348
41.586914	19.570313	41.586914
44.033203	13.454590	44.033203
45.256348	19.162598	45.256348
47.294922	14.677734	47.294922
46.887207	21.201172	46.887207
43.625488	24.055176	43.625488
40.363770	24.870605	40.363770
38.732910	26.909180	38.732910
37.509766	28.947754	37.509766
39.956055	31.801758	39.956055
39.140625	24.462891	39.140625
40.363770	26.909180	40.363770
43.625488	24.055176	43.625488
41.586914	18.347168	41.586914
41.179199	19.162598	41.179199
42.402344	15.493164	42.402344
44.848633	13.454590	44.848633
43.625488	10.600586	43.625488
42.402344	15.900879	42.402344
43.217773	14.677734	43.217773
41.179199	18.347168	41.179199
44.848633	22.832031	44.848633
43.217773	24.055176	43.217773
41.179199	23.647461	41.179199
38.325195	28.947754	38.325195
37.102051	28.947754	37.102051
34.248047	26.501465	34.248047
35.471191	27.316895	35.471191
33.432617	23.239746	33.432617
37.102051	21.201172	37.102051
37.509766	19.978027	37.509766
37.509766	19.162598	37.509766
39.956055	16.716309	39.956055
40.363770	12.639160	40.363770
39.140625	15.085449	39.140625
43.625488	22.832031	43.625488
47.294922	23.239746	47.294922
48.110352	23.239746	48.110352
44.440918	23.647461	44.440918
45.664062	23.239746	45.664062
46.479492	28.947754	46.479492
47.294922	33.432617	47.294922
44.848633	27.724609	44.848633
44.440918	26.909180	44.440918
48.925781	24.462891	48.925781
49.333496	20.793457	49.333496
48.518066	19.978027	48.518066
50.964355	15.493164	50.964355
44.033203	11.008301	44.033203
43.217773	6.931152	43.217773
47.702637	8.969727	47.702637
56.672363	11.416016	56.672363
53.818359	17.124023	53.818359
57.080078	21.201172	57.080078
55.449219	25.686035	55.449219
59.118652	28.132324	59.118652
59.934082	40.363770	59.934082
57.487793	37.509766	57.487793
56.672363	29.763184	56.672363
59.118652	29.763184	59.118652
54.633789	25.278320	54.633789
55.856934	21.608887	55.856934
56.672363	26.909180	56.672363
51.779785	24.870605	51.779785
49.741211	23.647461	49.741211
48.925781	20.385742	48.925781
51.372070	30.578613	51.372070
57.080078	26.909180	57.080078
56.672363	30.986328	56.672363
55.449219	35.878906	55.449219
54.633789	37.102051	54.633789
53.818359	39.548340	53.818359
48.110352	43.217773	48.110352
48.925781	42.402344	48.925781
44.848633	40.363770	44.848633
46.479492	44.440918	46.479492
48.518066	38.325195	48.518066
44.440918	38.325195	44.440918
46.479492	34.655762	46.479492
43.625488	31.394043	43.625488
44.848633	24.870605	44.848633
44.848633	19.978027	44.848633
45.256348	25.686035	45.256348
44.440918	25.686035	44.440918
46.479492	26.501465	46.479492
40.363770	34.248047	40.363770
37.509766	37.509766	37.509766
37.509766	39.548340	37.509766
37.102051	39.956055	37.102051
41.586914	42.402344	41.586914
35.063477	37.509766	35.063477
38.325195	38.732910	38.325195
33.024902	30.578613	33.024902
37.509766	28.947754	37.509766
32.209473	23.647461	32.209473
36.286621	25.278320	36.286621
39.548340	14.677734	39.548340
35.471191	10.600586	35.471191
38.325195	15.085449	38.325195
39.548340	14.677734	39.548340
39.956055	15.900879	39.956055
44.440918	16.716309	44.440918
42.402344	18.347168	42.402344
39.140625	19.978027	39.140625
37.102051	29.763184	37.102051
39.140625	25.278320	39.140625
34.248047	26.501465	34.248047
36.286621	26.909180	36.286621
38.325195	23.239746	38.325195
38.325195	19.570313	38.325195
42.402344	19.162598	42.402344
38.325195	19.162598	38.325195
37.102051	11.416016	37.102051
39.140625	8.969727	39.140625
37.102051	11.823730	37.102051
38.325195	7.746582	38.325195
34.655762	14.677734	34.655762
34.248047	16.308594	34.248047
34.248047	19.162598	34.248047
29.355469	21.201172	29.355469
25.686035	26.909180	25.686035
22.424316	27.724609	22.424316
24.462891	24.055176	24.462891
32.209473	19.978027	32.209473
37.102051	17.531738	37.102051
44.848633	15.493164	44.848633
39.140625	16.308594	39.140625
37.509766	15.493164	37.509766
34.248047	7.338867	34.248047
32.617187	4.484863	32.617187
38.325195	13.046875	38.325195
40.363770	16.308594	40.363770
44.848633	17.531738	44.848633
49.741211	18.347168	49.741211
48.110352	14.677734	48.110352
43.217773	19.570313	43.217773
42.402344	26.909180	42.402344
39.140625	30.986328	39.140625
36.286621	22.424316	36.286621
39.140625	20.793457	39.140625
39.548340	18.754883	39.548340
39.956055	15.085449	39.956055
38.325195	15.900879	38.325195
41.179199	14.270020	41.179199
39.956055	8.562012	39.956055
45.256348	4.484863	45.256348
42.402344	14.677734	42.402344
42.402344	10.600586	42.402344
39.956055	17.124023	39.956055
38.325195	18.754883	38.325195
38.325195	18.754883	38.325195
35.878906	19.570313	35.878906
38.325195	26.501465	38.325195
39.140625	25.278320	39.140625
36.694336	21.608887	36.694336
35.471191	20.385742	35.471191
38.325195	18.347168	38.325195
31.394043	15.493164	31.394043
35.878906	17.124023	35.878906
28.947754	13.046875	28.947754
35.471191	3.669434	35.471191
30.578613	2.854004	30.578613
38.732910	8.562012	38.732910
36.286621	4.892578	36.286621
37.509766	11.416016	37.509766
43.217773	16.716309	43.217773
40.771484	15.085449	40.771484
40.363770	21.201172	40.363770
39.548340	29.763184	39.548340
37.509766	25.686035	37.509766
39.956055	21.608887	39.956055
39.140625	24.055176	39.140625
39.140625	17.531738	39.140625
36.286621	17.124023	36.286621
41.586914	15.493164	41.586914
39.140625	15.493164	39.140625
39.956055	12.231445	39.956055
35.471191	10.600586	35.471191
35.063477	15.493164	35.063477
35.063477	14.677734	35.063477
32.209473	14.677734	32.209473
38.325195	17.124023	38.325195
35.471191	19.162598	35.471191
37.509766	25.278320	37.509766
41.586914	32.617187	41.586914
41.179199	34.655762	41.179199
40.363770	27.724609	40.363770
43.217773	28.540039	43.217773
39.140625	28.132324	39.140625
40.363770	24.870605	40.363770
37.102051	22.424316	37.102051
32.209473	23.239746	32.209473
25.686035	12.639160	25.686035
20.793457	7.338867	20.793457
25.278320	15.493164	25.278320
35.471191	16.308594	35.471191
42.402344	17.124023	42.402344
49.741211	24.870605	49.741211
48.518066	23.239746	48.518066
50.964355	21.608887	50.964355
47.294922	25.686035	47.294922
46.479492	22.424316	46.479492
38.732910	14.677734	38.732910
39.140625	14.270020	39.140625
39.140625	14.677734	39.140625
37.102051	19.978027	37.102051
42.402344	14.677734	42.402344
46.479492	12.639160	46.479492
44.033203	5.300293	44.033203
51.372070	3.261719	51.372070
48.518066	11.008301	48.518066
49.333496	6.931152	49.333496
43.217773	11.008301	43.217773
43.217773	12.231445	43.217773
44.033203	15.900879	44.033203
44.848633	16.308594	44.848633
44.440918	19.978027	44.440918
41.179199	19.570313	41.179199
39.140625	14.677734	39.140625
39.140625	18.347168	39.140625
35.063477	15.493164	35.063477
37.102051	12.231445	37.102051
39.140625	11.416016	39.140625
35.063477	9.785156	35.063477
38.732910	1.630859	38.732910
39.956055	5.300293	39.956055
44.848633	7.746582	44.848633
44.033203	6.931152	44.033203
44.848633	11.008301	44.848633
39.548340	19.570313	39.548340
39.956055	23.239746	39.956055
39.956055	20.385742	39.956055
35.471191	30.986328	35.471191
32.209473	28.132324	32.209473
29.763184	24.462891	29.763184
31.801758	25.686035	31.801758
34.248047	19.570313	34.248047
39.548340	19.978027	39.548340
38.732910	18.347168	38.732910
36.286621	16.308594	36.286621
39.140625	10.600586	39.140625
39.140625	11.416016	39.140625
40.363770	16.308594	40.363770
39.956055	16.308594	39.956055
37.509766	21.201172	37.509766
42.402344	22.424316	42.402344
38.325195	22.424316	38.325195
37.102051	28.132324	37.102051
39.956055	25.278320	39.956055
40.363770	30.986328	40.363770
39.140625	19.162598	39.140625
39.956055	24.055176	39.956055
40.771484	27.724609	40.771484
39.548340	26.909180	39.548340
38.325195	24.870605	38.325195
40.771484	19.162598	40.771484
44.033203	12.639160	44.033203
47.294922	9.785156	47.294922
45.664062	18.754883	45.664062
40.363770	13.454590	40.363770
35.471191	14.677734	35.471191
32.209473	16.308594	32.209473
35.471191	17.531738	35.471191
42.810059	22.832031	42.810059
46.887207	27.316895	46.887207
47.294922	26.909180	47.294922
42.810059	22.424316	42.810059
42.402344	22.832031	42.402344
39.140625	21.201172	39.140625
41.179199	17.124023	41.179199
41.586914	19.162598	41.586914
38.325195	19.162598	38.325195
37.102051	11.416016	37.102051
35.063477	14.677734	35.063477
41.179199	15.900879	41.179199
39.548340	13.454590	39.548340
46.887207	13.046875	46.887207
39.956055	14.677734	39.956055
38.732910	14.677734	38.732910
34.248047	18.754883	34.248047
34.655762	27.724609	34.655762
35.063477	31.394043	35.063477
32.617187	27.316895	32.617187
31.801758	29.763184	31.801758
27.316895	22.832031	27.316895
30.986328	16.308594	30.986328
31.394043	12.231445	31.394043
34.655762	16.308594	34.655762
29.763184	8.562012	29.763184
38.325195	9.785156	38.325195
35.063477	13.046875	35.063477
37.102051	11.823730	37.102051
33.024902	16.716309	33.024902
39.140625	22.424316	39.140625
35.471191	23.239746	35.471191
34.248047	28.132324	34.248047
33.432617	35.471191	33.432617
33.024902	33.024902	33.024902
33.024902	28.540039	33.024902
30.578613	28.947754	30.578613
30.986328	25.686035	30.986328
29.763184	21.201172	29.763184
35.063477	16.308594	35.063477
34.248047	13.046875	34.248047
39.140625	8.969727	39.140625
34.248047	4.484863	34.248047
36.286621	14.270020	36.286621
40.771484	5.300293	40.771484
41.179199	16.308594	41.179199
36.694336	19.978027	36.694336
35.878906	25.278320	35.878906
36.286621	27.316895	36.286621
31.801758	33.024902	31.801758
30.578613	34.655762	30.578613
28.132324	32.617187	28.132324
26.501465	29.763184	26.501465
24.462891	30.986328	24.462891
31.394043	24.055176	31.394043
29.763184	24.055176	29.763184
34.655762	22.424316	34.655762
28.540039	17.531738	28.540039
34.248047	17.124023	34.248047
