34.655762	32.617187	36.478624
33.024902	24.870605	36.669031
32.617187	16.308594	36.847302
32.617187	20.793457	37.013157
32.209473	18.754883	37.166771
34.248047	27.316895	37.308857
36.694336	40.363770	37.441396
38.732910	42.810059	37.567037
42.402344	48.110352	37.688638
43.217773	56.264648	37.808932
40.363770	55.856934	37.928495
38.325195	46.479492	38.045413
35.878906	41.179199	38.157219
35.878906	30.986328	38.262208
37.509766	27.316895	38.360364
34.248047	27.316895	38.451893
36.286621	33.024902	38.536249
28.132324	24.870605	38.611742
32.209473	13.046875	38.676016
28.132324	16.308594	38.728440
19.570313	9.377441	38.766177
15.900879	7.338867	38.783318
15.493164	15.493164	38.776497
10.600586	18.347168	38.744341
10.600586	14.677734	38.685355
8.969727	4.484863	38.599103
9.377441	12.231445	38.486163
13.454590	15.493164	38.348717
17.531738	21.201172	38.191343
19.978027	15.900879	38.018963
20.385742	19.978027	37.834902
21.608887	22.424316	37.641061
29.763184	28.540039	37.440979
33.024902	31.801758	37.240610
29.763184	23.647461	37.043178
42.402344	32.617187	36.851220
40.363770	19.570313	36.669937
41.586914	6.931152	36.501606
34.248047	22.832031	36.343998
32.209473	26.501465	36.192722
36.286621	14.677734	36.045721
25.278320	11.008301	35.901673
19.162598	20.793457	35.754274
12.639160	19.978027	35.596013
15.493164	14.270020	35.423266
24.462891	25.278320	35.239011
30.986328	32.617187	35.051140
28.947754	37.509766	34.865261
27.724609	37.509766	34.681802
30.986328	38.325195	34.500524
29.763184	37.509766	34.322589
31.394043	34.655762	34.148677
32.209473	28.540039	33.979536
29.355469	22.424316	33.815236
35.471191	19.162598	33.656051
33.432617	27.724609	33.503845
27.724609	20.793457	33.357497
21.608887	20.385742	33.211755
22.424316	15.085449	33.062246
20.385742	10.600586	32.907584
21.201172	16.308594	32.747522
34.248047	27.316895	32.585795
35.063477	25.686035	32.429929
34.655762	21.608887	32.283572
27.724609	29.763184	32.144627
32.209473	53.410645	32.010331
27.316895	60.341797	31.879868
26.909180	48.925781	31.751699
19.978027	34.248047	31.622537
11.416016	28.947754	31.486563
4.484863	24.055176	31.336090
4.077148	8.969727	31.165935
7.338867	-5.708008	30.975991
7.338867	-12.639160	30.768960
11.823730	-6.523437	30.547870
13.454590	-5.300293	30.316373
15.900879	2.854004	30.077864
22.424316	19.162598	29.836336
16.308594	28.540039	29.594645
15.900879	31.394043	29.351445
21.201172	39.548340	29.106631
21.608887	41.179199	28.863319
24.462891	29.763184	28.624053
28.132324	19.978027	28.391470
28.132324	15.085449	28.168190
33.024902	3.669434	27.956275
33.024902	-1.223145	27.758004
24.055176	9.785156	27.571895
22.832031	16.308594	27.392559
29.355469	15.900879	27.218593
29.355469	13.454590	27.053041
35.471191	19.162598	26.899017
39.956055	20.793457	26.760551
39.140625	20.793457	26.640833
23.647461	15.085449	26.535817
21.201172	11.823730	26.435953
24.055176	16.308594	26.336506
29.355469	43.625488	26.239811
27.316895	42.810059	26.148843
24.870605	36.694336	26.063118
22.832031	18.347168	25.980131
21.608887	16.716309	25.897811
24.462891	26.909180	25.815786
22.424316	35.878906	25.734770
23.647461	33.432617	25.654805
14.677734	19.162598	25.573676
20.385742	19.978027	25.488630
20.385742	15.085449	25.400576
21.201172	15.085449	25.311457
27.724609	20.793457	25.223558
22.424316	11.416016	25.139163
26.501465	14.677734	25.058203
30.578613	28.132324	24.982428
32.617187	44.033203	24.915432
26.501465	38.732910	24.857422
30.986328	42.402344	24.806553
33.024902	37.102051	24.763840
34.248047	26.909180	24.731528
26.501465	18.754883	24.708324
23.647461	11.008301	24.689341
19.570313	1.630859	24.669802
18.347168	0.407715	24.646540
23.239746	17.124023	24.619319
22.832031	25.686035	24.590490
22.424316	21.201172	24.561119
16.308594	26.909180	24.529335
22.424316	30.986328	24.493566
18.754883	33.432617	24.454673
27.316895	38.325195	24.414766
33.024902	44.440918	24.378968
31.394043	34.655762	24.351948
29.355469	22.424316	24.333446
29.355469	20.385742	24.321594
28.540039	24.870605	24.315354
29.355469	18.347168	24.314265
24.870605	12.231445	24.317129
20.385742	16.308594	24.320446
15.900879	11.416016	24.319478
17.124023	18.754883	24.311207
11.823730	14.677734	24.294045
19.162598	24.055176	24.267878
24.870605	25.686035	24.237104
27.316895	19.570313	24.207534
35.063477	23.647461	24.183962
35.063477	20.793457	24.170856
39.548340	32.617187	24.170967
33.432617	35.878906	24.184446
28.947754	37.102051	24.207461
23.647461	27.316895	24.234199
24.462891	19.162598	24.260715
20.385742	28.540039	24.284958
4.484863	33.432617	24.300898
1.630859	30.986328	24.298722
8.562012	21.608887	24.275397
11.823730	21.201172	24.235653
13.046875	26.909180	24.184133
10.600586	31.394043	24.122282
12.639160	24.870605	24.050203
14.677734	24.870605	23.969400
13.046875	20.793457	23.881532
16.308594	20.793457	23.787546
21.201172	22.832031	23.690388
32.209473	25.686035	23.596624
30.578613	31.801758	23.512839
24.055176	34.655762	23.438990
22.424316	43.217773	23.370419
14.677734	35.471191	23.302355
16.308594	17.531738	23.230777
19.570313	8.969727	23.155597
24.462891	3.669434	23.080484
28.132324	7.746582	23.009907
32.209473	3.669434	22.948017
35.471191	0.407715	22.898449
17.124023	2.854004	22.858661
0.407715	16.308594	22.815080
1.630859	29.355469	22.754640
23.239746	41.179199	22.680099
28.947754	47.294922	22.605347
24.462891	36.694336	22.537969
19.570313	44.440918	22.475559
20.385742	44.440918	22.414424
16.308594	26.501465	22.352643
20.385742	23.239746	22.289452
20.385742	25.686035	22.226053
20.385742	9.377441	22.163594
23.647461	-15.493164	22.102953
15.493164	-8.154297	22.043685
12.231445	5.708008	21.981504
12.231445	19.570313	21.912753
19.570313	26.909180	21.838872
21.201172	28.947754	21.764456
31.394043	32.617187	21.695070
29.763184	31.394043	21.635913
27.316895	28.132324	21.587762
33.024902	23.239746	21.549955
33.432617	33.432617	21.524526
35.471191	33.024902	21.513190
35.471191	23.239746	21.516499
32.209473	13.046875	21.533464
35.878906	16.308594	21.562699
37.102051	25.278320	21.605009
33.024902	16.308594	21.660294
25.686035	13.046875	21.724157
23.239746	4.077148	21.790575
26.501465	8.969727	21.857006
31.394043	16.308594	21.925735
37.102051	17.531738	22.001512
39.956055	21.201172	22.088973
41.179199	33.024902	22.190817
46.887207	48.110352	22.309175
44.033203	37.509766	22.445747
46.479492	32.617187	22.600206
55.856934	44.440918	22.774577
48.518066	33.024902	22.971417
46.479492	25.278320	23.187574
36.286621	17.124023	23.416267
28.540039	12.231445	23.648763
32.617187	-0.815430	23.878970
38.325195	1.630859	24.108355
31.394043	5.708008	24.338965
28.132324	18.754883	24.567501
38.325195	37.509766	24.792962
44.848633	40.771484	25.021461
38.325195	39.140625	25.257013
37.102051	35.471191	25.497014
39.548340	32.617187	25.739298
39.548340	24.870605	25.984471
46.887207	33.432617	26.234714
43.625488	28.947754	26.492533
44.033203	24.462891	26.757636
45.664062	23.647461	27.029200
50.964355	24.055176	27.309003
47.702637	17.124023	27.598734
50.556641	8.562012	27.898067
46.479492	4.484863	28.205824
39.956055	5.300293	28.518193
49.741211	2.446289	28.832711
63.603516	12.639160	29.156017
72.165527	21.201172	29.499476
74.611816	38.732910	29.870597
72.573242	46.479492	30.270735
73.796387	47.294922	30.698047
69.719238	39.548340	31.149890
69.719238	40.363770	31.622856
69.311523	27.724609	32.114313
64.826660	7.338867	32.621514
71.757812	4.077148	33.142570
71.350098	10.600586	33.678663
78.688965	5.300293	34.232081
85.212402	8.562012	34.806921
88.474121	24.870605	35.407820
94.589844	31.801758	36.037999
100.705566	38.325195	36.701146
107.229004	44.440918	37.401603
117.014160	45.256348	38.144548
121.091309	50.556641	38.935200
120.683594	49.333496	39.775173
119.052734	52.595215	40.661777
119.052734	44.033203	41.591003
129.653320	35.878906	42.562300
131.691895	24.055176	43.578847
128.837891	26.909180	44.640629
136.176758	26.909180	45.745447
139.030762	28.540039	46.894043
137.399902	33.024902	48.086227
138.623047	27.724609	49.318986
137.399902	27.316895	50.589077
142.700195	27.316895	51.894546
149.223633	27.316895	53.236594
154.523926	30.986328	54.618367
155.747070	39.140625	56.041432
159.008789	37.509766	57.505314
160.639648	36.286621	59.009088
164.309082	47.294922	60.552045
159.416504	49.333496	62.131858
156.562500	48.110352	63.742842
160.231934	33.024902	65.380070
167.163086	24.870605	67.043632
167.570801	29.763184	68.735299
165.939941	33.432617	70.453626
151.669922	35.471191	72.191102
150.854492	32.617187	73.936893
159.008789	38.325195	75.686753
155.339355	37.509766	77.441765
152.485352	36.694336	79.199317
145.554199	48.518066	80.953161
142.700195	47.702637	82.696483
144.331055	47.294922	84.425036
148.408203	48.110352	86.138851
155.339355	50.556641	87.841185
156.970215	50.556641	89.535912
160.231934	55.041504	91.225129
156.562500	56.264648	92.908491
153.300781	42.402344	94.582564
148.408203	36.694336	96.242049
144.738770	34.655762	97.881471
143.923340	30.986328	99.496590
140.661621	21.201172	101.084560
148.408203	11.416016	102.645051
144.331055	2.446289	104.179811
139.030762	9.785156	105.686892
136.992188	25.686035	107.161574
134.545898	33.432617	108.600671
126.391602	39.956055	110.000319
124.760742	45.256348	111.355481
128.837891	67.680664	112.664820
125.168457	58.710937	113.929787
115.791016	53.410645	115.147743
112.121582	49.333496	116.312685
102.336426	47.702637	117.418828
103.151855	45.256348	118.461784
97.036133	43.625488	119.439572
92.958984	36.286621	120.350048
87.658691	16.716309	121.190164
84.804687	15.493164	121.957621
77.465820	16.716309	122.650085
73.388672	16.308594	123.264549
76.650391	24.462891	123.800691
76.650391	34.655762	124.262138
64.826660	24.870605	124.649540
66.865234	33.432617	124.960171
65.642090	41.179199	125.194825
60.341797	35.471191	125.355200
55.041504	38.325195	125.439995
47.294922	45.256348	125.446333
43.625488	44.440918	125.371337
34.248047	43.625488	125.212345
29.763184	32.209473	124.966262
19.570313	28.947754	124.629796
13.046875	21.201172	124.199148
14.270020	34.655762	123.673256
14.270020	32.617187	123.055917
11.823730	38.732910	122.351603
9.785156	32.209473	121.563173
0.815430	27.724609	120.691197
0.000000	38.732910	119.734917
-4.484863	42.402344	118.695193
-8.562012	40.363770	117.573259
-12.639160	32.209473	116.369626
-16.308594	39.548340	115.085086
-19.570313	48.925781	113.720797
-26.501465	49.333496	112.277310
-24.462891	41.179199	110.755767
-28.132324	28.947754	109.159589
-39.956055	11.416016	107.489338
-42.402344	8.969727	105.742308
-36.694336	33.432617	103.920920
-50.964355	33.024902	102.029067
-62.380371	44.033203	100.062932
-59.934082	47.294922	98.018844
-62.380371	52.187500	95.900126
-65.234375	50.556641	93.710994
-67.272949	55.449219	91.454263
-63.603516	59.118652	89.134508
-67.680664	56.264648	86.757346
-70.534668	53.818359	84.325947
-80.319824	49.333496	81.840182
-84.804687	47.702637	79.298060
-85.620117	35.471191	76.699663
-93.774414	22.832031	74.046523
-98.666992	16.308594	71.338126
-106.821289	6.523437	68.572966
-107.229004	0.815430	65.750844
-110.490723	5.708008	62.874095
-112.937012	12.231445	59.945753
-116.198730	24.870605	56.968234
-114.567871	37.102051	53.944967
-111.713867	53.002930	50.881952
-109.267578	71.350098	47.786778
-111.306152	69.311523	44.665655
-109.675293	60.341797	41.523038
-106.821289	52.595215	38.364274
-117.829590	55.041504	35.192450
-139.030762	51.372070	32.000887
-143.923340	44.848633	28.778518
-145.146484	39.140625	25.521664
-143.923340	34.248047	22.233703
-153.708496	26.909180	18.917249
-159.824219	15.493164	15.570654
-159.824219	1.223145	12.193016
-161.455078	3.669434	8.787255
-154.523926	19.162598	5.359188
-153.708496	25.686035	1.916856
-157.377930	33.432617	-1.534192
-156.562500	35.878906	-4.991436
-162.678223	36.694336	-8.453104
-164.716797	34.248047	-11.918892
-163.901367	40.771484	-15.387435
-172.055664	46.479492	-18.857213
-177.355957	39.140625	-22.329986
-187.141113	24.055176	-25.809466
-185.917969	15.493164	-29.297907
-184.287109	9.785156	-32.792734
-187.141113	-0.407715	-36.289559
-181.433105	11.416016	-39.784189
-185.510254	2.854004	-43.271872
-181.433105	5.300293	-46.748830
-180.617676	19.570313	-50.210611
-189.587402	25.686035	-53.655121
-193.664551	11.416016	-57.085093
-203.857422	15.493164	-60.504759
-196.110840	29.763184	-63.915382
-199.372559	36.694336	-67.313253
-198.964844	43.625488	-70.694952
-203.041992	35.471191	-74.059371
-197.741699	17.124023	-77.404401
-201.003418	4.484863	-80.726550
-201.818848	3.261719	-84.023897
-205.488281	-2.446289	-87.296353
-206.711426	-11.823730	-90.544069
-208.750000	-8.969727	-93.766896
-204.672852	-3.261719	-96.962897
-207.934570	4.484863	-100.129179
-207.934570	16.308594	-103.264405
-203.857422	20.385742	-106.366474
-205.488281	28.540039	-109.431914
-212.011719	26.909180	-112.460665
-213.234863	25.686035	-115.455382
-211.604004	16.308594	-118.416390
-211.196289	10.600586	-121.341462
-216.088867	11.008301	-124.229795
-213.234863	9.377441	-127.081733
-213.642578	15.493164	-129.895822
-208.342285	6.523437	-132.668891
-207.934570	-9.377441	-135.397101
-212.827148	-26.501465	-138.079297
-218.942871	-22.424316	-140.718816
-219.758301	-4.077148	-143.319529
-220.981445	0.815430	-145.882820
-217.719727	12.639160	-148.407690
-213.642578	14.270020	-150.890765
-208.750000	10.600586	-153.327044
-205.488281	21.201172	-155.711591
-210.788574	42.402344	-158.042636
-210.788574	36.694336	-160.322084
-221.389160	18.347168	-162.554054
-221.389160	12.231445	-164.743922
-217.312012	3.669434	-166.893007
-215.681152	6.931152	-168.998330
-210.788574	9.377441	-171.056448
-212.419434	0.000000	-173.064766
-211.604004	-23.647461	-175.022790
-215.681152	-15.900879	-176.931812
-219.350586	-9.785156	-178.794937
-214.865723	1.630859	-180.614109
-209.973145	19.978027	-182.386730
-208.342285	11.008301	-184.108870
-203.041992	-0.815430	-185.777473
-203.857422	-2.446289	-187.390213
-212.419434	9.785156	-188.949211
-221.389160	8.562012	-190.462333
-224.650879	18.347168	-191.937887
-222.612305	24.870605	-193.379559
-226.689453	15.900879	-194.788227
-225.466309	-3.669434	-196.165190
-216.496582	-9.377441	-197.508511
-212.827148	-2.854004	-198.812306
-213.642578	-9.377441	-200.072924
-226.689453	-0.815430	-201.293891
-232.805176	4.484863	-202.484395
-235.251465	8.562012	-203.651848
-226.689453	15.900879	-204.796711
-223.427734	18.347168	-205.914092
-218.942871	19.978027	-206.998922
-217.719727	23.647461	-208.048001
-216.904297	20.385742	-209.059812
-217.719727	12.639160	-210.034444
-218.535156	11.823730	-210.972988
-216.496582	7.746582	-211.876199
-216.496582	7.746582	-212.743873
-214.865723	11.823730	-213.575744
-213.642578	16.308594	-214.371382
-215.273437	13.454590	-215.130950
-221.389160	0.000000	-215.857428
-220.981445	-0.407715	-216.555084
-217.312012	-5.300293	-217.224922
-214.865723	-13.046875	-217.864819
-205.895996	-7.746582	-218.470856
-198.964844	15.085449	-219.036753
-199.372559	25.686035	-219.557844
-203.041992	19.162598	-220.034970
-204.672852	21.608887	-220.472084
-209.565430	8.562012	-220.873647
-211.604004	-0.815430	-221.244381
-207.119141	8.969727	-221.586473
-209.973145	7.338867	-221.899790
-204.265137	23.239746	-222.184128
-201.003418	24.462891	-222.437395
-205.080566	11.416016	-222.658592
-204.672852	-6.931152	-222.850118
-207.119141	-13.454590	-223.014615
-196.110840	-15.493164	-223.151421
-196.518555	-4.892578	-223.256614
-203.041992	6.931152	-223.330551
-205.488281	13.046875	-223.378749
-199.372559	16.716309	-223.403715
-191.218262	16.308594	-223.401764
-185.917969	20.385742	-223.366833
-179.394531	24.055176	-223.293815
-175.317383	16.308594	-223.178621
-183.471680	4.484863	-223.021569
-187.956543	0.815430	-222.829113
-189.995117	8.562012	-222.608093
-196.926270	9.377441	-222.364105
-192.033691	-3.261719	-222.101338
-189.995117	-8.969727	-221.819634
-188.771973	-3.261719	-221.517470
-189.995117	-4.077148	-221.195233
-192.849121	-8.154297	-220.855243
-189.179687	8.154297	-220.499517
-187.141113	17.531738	-220.127430
-186.733398	16.308594	-219.737972
-185.917969	18.347168	-219.331375
-180.617676	24.462891	-218.906915
-185.917969	16.308594	-218.464240
-185.102539	1.630859	-218.005821
-181.433105	-12.231445	-217.532851
-178.986816	-4.892578	-217.043702
-174.501953	4.077148	-216.536195
-176.948242	7.338867	-216.009338
-176.948242	10.600586	-215.464669
-180.209961	6.931152	-214.905066
-180.209961	6.523437	-214.333509
-180.617676	1.223145	-213.752102
-179.802246	4.484863	-213.161904
-183.063965	3.669434	-212.564468
-177.763672	7.746582	-211.960857
-180.209961	17.531738	-211.350700
-176.540527	25.686035	-210.733865
-172.463379	25.686035	-210.108944
-174.501953	19.978027	-209.474391
-172.463379	12.639160	-208.830774
-169.609375	0.815430	-208.177894
-168.793945	-3.669434	-207.514608
-172.055664	5.708008	-206.841764
-169.201660	15.085449	-206.161250
-169.201660	6.931152	-205.473487
-171.240234	-13.454590	-204.779312
-165.532227	-14.677734	-204.079317
-165.939941	-9.785156	-203.372144
-169.609375	6.931152	-202.658541
-176.132812	13.046875	-201.943297
-170.832520	11.416016	-201.230237
-161.455078	8.562012	-200.516476
-162.678223	14.677734	-199.796800
-163.493652	16.308594	-199.070626
-163.085937	17.124023	-198.339653
-157.377930	20.793457	-197.603368
-150.854492	21.608887	-196.857966
-148.815918	17.124023	-196.099181
-147.592773	15.493164	-195.325310
-155.747070	9.785156	-194.538814
-159.824219	8.562012	-193.746126
-161.455078	11.008301	-192.953072
-168.386230	7.338867	-192.164249
-172.055664	-1.223145	-191.385330
-164.309082	-4.484863	-190.618397
-158.601074	5.708008	-189.859107
-150.854492	14.677734	-189.100843
-153.300781	25.278320	-188.339430
-147.592773	35.471191	-187.573560
-151.669922	38.732910	-186.802955
-144.738770	27.724609	-186.027461
-148.408203	26.501465	-185.246508
-145.961914	26.501465	-184.460629
-145.961914	16.716309	-183.670550
-141.477051	9.377441	-182.875473
-138.623047	-0.407715	-182.073352
-132.507324	0.815430	-181.261066
-137.807617	0.815430	-180.437359
-147.592773	4.077148	-179.607362
-152.077637	-4.892578	-178.779943
-152.485352	-0.815430	-177.960889
-146.777344	-1.223145	-177.150575
-134.953613	9.377441	-176.343458
-125.168457	20.793457	-175.529959
-128.837891	19.162598	-174.703940
-130.468750	26.909180	-173.866621
-136.176758	24.055176	-173.022715
-143.515625	26.909180	-172.178762
-137.807617	18.347168	-171.339507
-127.207031	11.008301	-170.501763
-132.915039	10.600586	-169.660772
-134.545898	7.746582	-168.818207
-132.099609	2.854004	-167.976740
-130.468750	-7.746582	-167.135919
-135.769043	2.446289	-166.296492
-140.661621	9.377441	-165.462918
-132.915039	11.008301	-164.637736
-132.099609	13.046875	-163.818434
-124.353027	5.300293	-163.001109
-128.022461	2.854004	-162.183209
-133.322754	8.562012	-161.366905
-136.992188	23.647461	-160.557696
-134.953613	23.239746	-159.758893
-131.691895	24.870605	-158.969902
-128.837891	17.531738	-158.188107
-127.614746	5.708008	-157.411328
-117.421875	5.708008	-156.636082
-117.829590	1.223145	-155.857545
-119.052734	3.669434	-155.074543
-123.537598	11.823730	-154.290029
-127.614746	11.823730	-153.508644
-126.391602	0.000000	-152.734066
-128.430176	7.746582	-151.967764
-117.829590	18.754883	-151.208134
-119.460449	16.716309	-150.451066
-117.829590	12.639160	-149.694883
-112.529297	31.394043	-148.938520
-112.121582	35.878906	-148.179458
-110.490723	21.201172	-147.416583
-112.937012	16.716309	-146.650548
-116.198730	11.008301	-145.884015
-116.198730	4.077148	-145.120167
-110.898438	7.338867	-144.359150
-109.675293	5.300293	-143.598530
-108.044434	0.000000	-142.836625
-108.859863	-19.978027	-142.073329
-102.744141	-16.308594	-141.307901
-98.666992	-11.008301	-140.537172
-111.306152	6.931152	-139.761763
-108.452148	12.639160	-138.987522
-104.782715	1.630859	-138.216065
-103.559570	0.815430	-137.445078
-106.413574	13.454590	-136.674493
-110.898438	37.509766	-135.907458
-108.859863	32.617187	-135.147188
-107.636719	32.617187	-134.393962
-100.297852	41.179199	-133.645146
-99.074707	23.239746	-132.896827
-99.890137	7.746582	-132.147415
-97.443848	-0.815430	-131.397211
-101.520996	-3.669434	-130.647038
-100.705566	-8.154297	-129.898968
-110.490723	-2.854004	-129.156906
-108.452148	0.407715	-128.425751
-101.520996	2.446289	-127.705454
-96.628418	7.746582	-126.990818
-90.920410	15.085449	-126.276448
-86.435547	31.394043	-125.557620
-91.735840	28.947754	-124.832827
-94.997559	28.540039	-124.105565
-96.628418	23.647461	-123.380244
-96.628418	35.063477	-122.659252
-92.958984	31.801758	-121.942616
-92.958984	19.570313	-121.228962
-97.036133	6.931152	-120.519013
-93.366699	8.154297	-119.814524
-94.997559	-4.077148	-119.115561
-92.551270	-13.046875	-118.421857
-88.066406	8.562012	-117.731869
-79.504395	15.493164	-117.040905
-83.581543	21.201172	-116.345129
-82.766113	28.947754	-115.645170
-86.843262	18.347168	-114.943666
-85.620117	14.270020	-114.243031
-90.920410	22.832031	-113.545782
-83.989258	26.501465	-112.853142
-85.212402	15.493164	-112.163701
-82.766113	18.347168	-111.476218
-84.804687	20.385742	-110.790899
-78.688965	16.308594	-110.107187
-73.796387	7.338867	-109.421765
-77.873535	9.377441	-108.732324
-79.912109	11.416016	-108.041165
-78.688965	2.446289	-107.350911
-79.096680	-4.484863	-106.662247
-80.727539	-2.446289	-105.976145
-85.212402	-4.892578	-105.295353
-85.620117	10.600586	-104.623237
-71.757812	16.308594	-103.957861
-73.796387	21.201172	-103.292978
-75.019531	19.570313	-102.627016
-67.272949	28.540039	-101.959867
-65.234375	18.347168	-101.288000
-69.719238	21.201172	-100.610408
-70.942383	24.055176	-99.930205
-72.980957	21.201172	-99.250580
-79.912109	24.870605	-98.575433
-80.727539	37.509766	-97.909663
-79.096680	29.763184	-97.255364
-75.834961	17.124023	-96.611206
-72.980957	14.270020	-95.974513
-75.427246	-3.669434	-95.343903
-82.766113	-4.077148	-94.722226
-72.980957	14.677734	-94.111658
-69.719238	27.724609	-93.508268
-71.350098	17.124023	-92.908509
-70.942383	-2.446289	-92.312739
-63.195801	14.270020	-91.719583
-63.195801	13.046875	-91.125368
-56.264648	32.209473	-90.526912
-59.934082	37.102051	-89.922358
-71.350098	23.239746	-89.315722
-70.942383	16.308594	-88.714593
-67.272949	15.900879	-88.121172
-59.118652	4.484863	-87.531556
-57.487793	-1.630859	-86.940517
-55.041504	15.900879	-86.345098
-52.187500	18.347168	-85.743661
-55.041504	15.493164	-85.135717
-54.633789	13.046875	-84.522843
-54.633789	2.854004	-83.906442
-60.341797	2.854004	-83.288714
-56.264648	14.677734	-82.672295
-51.779785	28.132324	-82.055953
-49.741211	25.686035	-81.436370
-48.518066	21.201172	-80.811773
-46.479492	13.046875	-80.181331
-46.479492	13.454590	-79.544581
-44.440918	25.686035	-78.901406
-47.294922	19.978027	-78.252451
-57.080078	-0.815430	-77.602195
-55.449219	-9.785156	-76.956841
-52.187500	-0.815430	-76.317704
-46.479492	0.815430	-75.681531
-41.179199	5.300293	-75.043608
-37.102051	11.008301	-74.399330
-39.140625	13.454590	-73.746663
-32.617187	24.870605	-73.084959
-39.548340	19.978027	-72.414252
-42.810059	24.870605	-71.738440
-48.925781	24.870605	-71.063604
-50.964355	33.432617	-70.395016
-44.033203	37.102051	-69.733950
-47.294922	24.870605	-69.078513
-43.625488	20.793457	-68.428066
-44.440918	28.947754	-67.782209
-40.771484	25.686035	-67.139915
-44.033203	3.669434	-66.500840
-48.518066	-15.085449	-65.867437
-47.294922	-16.716309	-65.243007
-45.256348	-2.446289	-64.627798
-37.509766	15.493164	-64.018614
-38.732910	18.347168	-63.411535
-31.394043	26.909180	-62.803785
-27.724609	33.432617	-62.191535
-26.501465	39.956055	-61.571455
-33.024902	24.055176	-60.944657
-33.432617	20.793457	-60.315320
-32.209473	21.201172	-59.685824
-31.801758	13.046875	-59.056196
-26.501465	7.746582	-58.425176
-29.355469	5.300293	-57.791349
-32.617187	-5.708008	-57.156470
-35.063477	-3.669434	-56.524361
-42.810059	7.338867	-55.899738
-39.548340	7.746582	-55.286773
-34.655762	8.154297	-54.684618
-30.986328	21.201172	-54.089026
-28.947754	30.578613	-53.496574
-30.986328	27.724609	-52.906246
-32.209473	25.278320	-52.319420
-32.617187	28.540039	-51.737841
-32.209473	16.308594	-51.162311
-35.063477	15.493164	-50.593802
-24.870605	14.677734	-50.031308
-26.909180	11.416016	-49.471079
-22.832031	9.377441	-48.910922
-25.278320	8.969727	-48.350459
-33.840332	8.969727	-47.792756
-40.771484	2.854004	-47.245236
-35.878906	15.493164	-46.712618
-28.947754	26.909180	-46.192216
-26.909180	26.909180	-45.678561
-23.647461	17.531738	-45.168138
-30.578613	6.931152	-44.660909
-25.686035	15.493164	-44.158761
-25.686035	22.424316	-43.661243
-23.239746	24.870605	-43.166738
-26.909180	19.978027	-42.675310
-22.832031	19.570313	-42.187550
-17.531738	13.454590	-41.701232
-16.308594	6.931152	-41.212626
-23.647461	12.639160	-40.722242
-17.124023	14.677734	-40.232496
-20.793457	9.377441	-39.743338
-24.462891	-1.223145	-39.256435
-23.647461	-5.708008	-38.774872
-19.978027	-10.600586	-38.298486
-22.832031	0.000000	-37.826151
-21.201172	11.416016	-37.358285
-18.347168	15.493164	-36.894322
-15.085449	14.677734	-36.431787
-6.931152	18.347168	-35.966496
-7.338867	22.424316	-35.494029
-12.231445	14.677734	-35.014566
-11.823730	14.677734	-34.531497
-5.708008	31.801758	-34.044959
-0.815430	18.347168	-33.551013
-8.562012	7.338867	-33.048373
-19.162598	0.407715	-32.543530
-22.832031	3.261719	-32.045683
-29.355469	7.746582	-31.561463
-27.724609	5.300293	-31.094726
-30.578613	11.416016	-30.646775
-20.793457	11.008301	-30.215730
-12.639160	17.531738	-29.794746
-8.154297	24.870605	-29.375776
-5.708008	15.085449	-28.954028
-13.046875	9.785156	-28.529535
-13.454590	15.900879	-28.106189
-15.085449	9.377441	-27.686952
-7.338867	7.338867	-27.271008
0.407715	1.223145	-26.852968
1.630859	-0.815430	-26.426941
-3.261719	0.000000	-25.992343
-8.562012	3.261719	-25.553661
-11.008301	7.746582	-25.116254
-14.677734	4.484863	-24.684165
-3.261719	10.600586	-24.257178
-6.523437	9.377441	-23.831335
-2.854004	4.484863	-23.404781
3.669434	8.969727	-22.975212
0.000000	7.338867	-22.539789
5.708008	8.969727	-22.097950
4.484863	15.900879	-21.648735
2.446289	20.793457	-21.192631
-0.815430	31.801758	-20.732677
-2.854004	35.063477	-20.272316
3.669434	28.132324	-19.812264
1.223145	6.931152	-19.350741
0.815430	11.416016	-18.887978
-0.407715	8.562012	-18.425696
0.407715	4.484863	-17.964893
1.630859	0.000000	-17.505559
2.854004	13.046875	-17.046932
2.854004	7.746582	-16.588497
8.154297	-3.261719	-16.129013
11.823730	4.484863	-15.665264
5.300293	16.308594	-15.196322
-3.669434	29.355469	-14.727735
-6.931152	40.771484	-14.267263
-0.407715	37.509766	-13.817377
3.261719	16.308594	-13.374538
8.969727	24.055176	-12.933748
9.785156	34.655762	-12.491203
11.823730	28.947754	-12.044983
12.639160	33.432617	-11.594224
11.008301	21.608887	-11.139069
6.931152	9.377441	-10.681911
1.630859	-4.484863	-10.227283
8.562012	0.000000	-9.777582
11.823730	5.708008	-9.329953
22.424316	12.231445	-8.878453
19.570313	6.931152	-8.418054
2.854004	16.716309	-7.952750
0.000000	28.132324	-7.493535
5.300293	32.617187	-7.045112
11.008301	32.209473	-6.603930
18.754883	22.832031	-6.163698
21.201172	28.540039	-5.718624
12.639160	28.540039	-5.268323
5.300293	19.162598	-4.819290
2.446289	36.694336	-4.378792
4.484863	31.801758	-3.949799
8.562012	19.570313	-3.530847
12.639160	6.931152	-3.118172
19.978027	9.377441	-2.706783
15.900879	15.085449	-2.293199
13.454590	8.562012	-1.878810
16.308594	11.416016	-1.465694
12.639160	17.531738	-1.054335
16.716309	9.377441	-0.645194
16.308594	15.493164	-0.237527
19.570313	26.501465	0.170016
21.201172	24.462891	0.579049
19.162598	15.493164	0.990251
17.531738	19.162598	1.402023
14.677734	15.493164	1.811762
14.677734	15.085449	2.217203
19.570313	12.231445	2.618650
20.385742	18.754883	3.018647
18.347168	10.600586	3.418018
14.677734	5.708008	3.814550
14.677734	6.523437	4.205492
19.162598	9.377441	4.590901
22.424316	14.270020	4.973835
20.385742	23.239746	5.356362
21.201172	16.308594	5.738096
24.462891	19.570313	6.119423
28.132324	34.655762	6.502852
35.063477	30.986328	6.892490
36.286621	36.694336	7.292574
33.432617	38.732910	7.703923
19.570313	33.432617	8.120776
17.531738	19.978027	8.533875
22.832031	21.201172	8.939638
30.578613	13.046875	9.342254
15.900879	-11.416016	9.743050
21.201172	-3.261719	10.137402
21.608887	10.600586	10.524225
25.686035	6.931152	10.906131
25.686035	3.669434	11.285190
30.986328	6.931152	11.663597
31.394043	17.124023	12.043874
33.432617	26.501465	12.427681
37.509766	43.625488	12.816702
34.248047	31.801758	13.212114
37.102051	32.617187	13.613318
30.578613	33.024902	14.018560
30.578613	20.385742	14.424553
29.355469	7.338867	14.828801
35.471191	2.446289	15.231923
32.617187	-1.223145	15.635689
31.394043	-7.746582	16.039430
33.024902	11.416016	16.441759
32.209473	7.746582	16.842640
31.394043	4.892578	17.241502
29.355469	19.978027	17.636840
31.394043	37.509766	18.027647
36.694336	26.501465	18.415648
34.248047	22.424316	18.803238
42.402344	28.132324	19.192278
35.063477	22.832031	19.584007
28.132324	28.132324	19.974358
32.209473	34.655762	20.358485
33.024902	25.278320	20.736801
34.655762	9.377441	21.111100
31.801758	6.523437	21.481491
33.024902	14.677734	21.847015
30.578613	11.008301	22.206756
27.724609	20.385742	22.558885
29.355469	26.501465	22.901665
31.394043	28.947754	23.235800
35.471191	32.617187	23.563902
35.471191	29.763184	23.888577
42.402344	31.394043	24.212531
44.848633	42.402344	24.539740
44.848633	43.625488	24.872819
37.509766	26.909180	25.209867
39.140625	21.201172	25.546923
45.664062	8.969727	25.884274
48.110352	0.815430	26.226051
56.672363	13.046875	26.576942
48.518066	15.900879	26.939165
43.217773	17.124023	27.308398
35.471191	23.647461	27.676974
30.986328	29.763184	28.037895
26.501465	35.063477	28.385559
23.239746	19.978027	28.715811
26.909180	8.969727	29.027164
25.278320	13.046875	29.320791
39.956055	13.046875	29.601150
47.702637	23.239746	29.877863
55.856934	32.209473	30.160875
55.449219	25.686035	30.455813
48.110352	30.578613	30.761828
35.471191	23.239746	31.070812
37.102051	8.969727	31.374168
38.325195	8.969727	31.669689
29.355469	13.046875	31.956134
29.355469	24.870605	32.229223
31.801758	15.493164	32.487561
41.586914	11.416016	32.735399
38.325195	12.231445	32.977881
43.625488	10.600586	33.217242
39.956055	19.570313	33.454338
35.471191	14.270020	33.687307
39.140625	18.347168	33.913736
44.440918	20.385742	34.135825
48.925781	27.724609	34.358464
51.779785	28.540039	34.585893
47.294922	28.947754	34.819155
48.518066	23.239746	35.056455
43.217773	14.270020	35.295434
44.848633	14.677734	35.533729
48.925781	6.931152	35.771656
44.848633	0.815430	36.010481
35.063477	11.823730	36.246272
23.647461	14.677734	36.469706
29.355469	5.300293	36.674042
35.063477	-4.892578	36.861428
47.294922	14.677734	37.040147
55.041504	29.763184	37.220365
45.664062	32.617187	37.406644
48.110352	31.801758	37.596264
50.964355	17.531738	37.788447
49.741211	5.300293	37.984695
43.217773	14.270020	38.183011
34.655762	28.540039	38.377095
28.132324	26.909180	38.559010
42.402344	26.909180	38.727188
53.002930	23.239746	38.890643
55.856934	16.308594	39.059485
46.479492	5.708008	39.235113
54.633789	8.562012	39.415000
56.672363	7.746582	39.601120
47.702637	11.008301	39.793853
42.402344	28.947754	39.987126
30.578613	33.024902	40.172465
34.655762	23.239746	40.343502
39.956055	26.909180	40.501134
44.033203	34.655762	40.650728
48.518066	28.947754	40.797205
53.002930	29.355469	40.945158
58.303223	35.471191	41.099290
54.633789	31.394043	41.262159
52.187500	28.540039	41.432019
43.217773	20.793457	41.603769
45.664062	15.900879	41.772432
44.848633	19.162598	41.936685
46.887207	17.531738	42.097304
49.741211	15.493164	42.255892
57.487793	15.900879	42.416444
56.672363	21.608887	42.583308
50.556641	14.677734	42.756023
47.702637	19.978027	42.929964
48.110352	35.878906	43.101896
52.187500	44.033203	43.272263
53.410645	40.771484	43.443528
57.487793	30.986328	43.618255
62.788086	30.986328	43.799959
67.272949	28.540039	43.993168
51.372070	12.231445	44.196727
43.217773	12.231445	44.400637
43.217773	17.531738	44.596206
41.586914	10.600586	44.781036
47.294922	10.600586	44.956063
47.294922	7.746582	45.124116
39.548340	2.854004	45.284801
37.509766	8.562012	45.433676
50.556641	17.124023	45.571441
50.964355	18.347168	45.704883
50.556641	24.462891	45.837589
47.294922	42.402344	45.968491
47.294922	34.655762	46.095712
53.410645	22.424316	46.220034
56.264648	9.377441	46.345422
56.264648	2.446289	46.474801
51.779785	15.493164	46.607426
44.033203	24.055176	46.738619
41.179199	22.424316	46.862310
38.732910	17.124023	46.974531
39.140625	21.201172	47.073757
43.217773	13.046875	47.161115
43.217773	6.931152	47.239300
47.702637	12.639160	47.310895
46.479492	25.686035	47.378157
48.110352	34.655762	47.442177
49.741211	28.132324	47.503998
51.779785	31.801758	47.565476
57.080078	31.801758	47.629453
55.449219	38.732910	47.698640
59.118652	35.878906	47.774229
60.749512	39.548340	47.857777
64.826660	31.801758	47.951728
61.157227	3.669434	48.057118
59.118652	-8.154297	48.171925
53.002930	3.261719	48.291962
48.925781	22.832031	48.412045
34.655762	24.055176	48.524549
35.471191	21.201172	48.621344
41.586914	22.424316	48.701329
44.848633	22.424316	48.769464
51.779785	30.578613	48.831355
55.449219	34.655762	48.892683
57.487793	32.617187	48.957693
60.341797	24.870605	49.028935
56.672363	28.947754	49.107122
55.856934	30.578613	49.190464
54.633789	24.055176	49.276928
56.672363	17.124023	49.365959
55.856934	5.708008	49.457884
48.110352	8.154297	49.550546
43.217773	7.746582	49.638245
44.440918	11.416016	49.716831
44.848633	11.823730	49.786098
47.294922	18.347168	49.847574
50.964355	15.900879	49.903903
58.710937	15.493164	49.959865
63.195801	18.347168	50.021629
57.080078	21.201172	50.091653
58.303223	33.432617	50.167775
59.118652	39.548340	50.248888
55.856934	31.394043	50.334575
50.556641	26.909180	50.421646
48.925781	17.124023	50.505878
55.856934	14.677734	50.586881
59.118652	8.562012	50.668788
53.002930	6.931152	50.753398
49.741211	15.493164	50.837288
47.702637	28.947754	50.916546
47.702637	26.501465	50.989371
44.848633	12.231445	51.054693
52.187500	18.754883	51.113211
53.002930	19.978027	51.168493
53.818359	19.978027	51.223198
57.487793	18.754883	51.278900
63.603516	30.578613	51.339244
68.496094	31.801758	51.409420
67.272949	36.694336	51.492763
64.826660	26.909180	51.588589
55.449219	17.531738	51.692162
55.856934	18.754883	51.797560
53.002930	17.531738	51.901591
52.595215	11.416016	52.002707
53.410645	1.630859	52.100186
59.118652	19.162598	52.195909
59.934082	19.978027	52.293284
61.564941	17.531738	52.394489
63.195801	23.647461	52.500744
61.564941	28.947754	52.612565
66.865234	30.578613	52.730547
70.534668	44.440918	52.857606
66.457520	52.187500	52.995447
66.457520	37.509766	53.142258
67.272949	30.986328	53.296622
61.564941	19.978027	53.456963
52.187500	16.308594	53.617594
59.118652	11.416016	53.773728
74.611816	-0.815430	53.930652
72.573242	3.669434	54.097590
63.603516	22.424316	54.274557
57.487793	26.909180	54.454056
55.041504	19.978027	54.629574
58.710937	14.677734	54.799177
60.749512	19.978027	54.964777
59.934082	23.239746	55.128202
56.672363	22.424316	55.288628
59.118652	20.793457	55.444739
64.826660	34.248047	55.598492
59.526367	29.763184	55.752083
58.710937	25.686035	55.903858
59.526367	28.132324	56.052134
58.303223	24.055176	56.196806
55.041504	24.055176	56.336600
51.779785	29.355469	56.468699
50.964355	19.570313	56.590527
53.818359	15.085449	56.701887
58.710937	20.385742	56.805707
63.195801	25.686035	56.906717
66.865234	35.878906	57.009544
66.865234	35.471191	57.117103
60.749512	25.686035	57.228425
60.749512	10.600586	57.340009
65.642090	15.085449	57.451404
71.350098	33.024902	57.566572
73.388672	35.878906	57.690040
73.388672	43.625488	57.823874
73.388672	40.771484	57.967998
72.573242	23.239746	58.121580
63.603516	19.978027	58.281246
57.487793	24.870605	58.440019
64.826660	28.947754	58.594131
64.826660	18.347168	58.745881
61.564941	15.493164	58.896287
50.964355	12.639160	59.040753
57.487793	23.239746	59.174686
61.564941	24.055176	59.300134
62.380371	21.201172	59.421421
61.564941	30.986328	59.539892
65.234375	38.325195	59.656301
59.526367	40.771484	59.770833
69.311523	35.471191	59.883988
69.311523	38.732910	59.999351
67.680664	32.209473	60.118843
60.749512	20.793457	60.239474
66.865234	9.377441	60.358601
69.311523	7.338867	60.478204
69.719238	11.416016	60.601133
68.903809	8.562012	60.727751
61.157227	11.416016	60.855402
57.080078	8.154297	60.978549
59.118652	13.046875	61.093626
56.672363	20.793457	61.200236
53.818359	19.978027	61.297150
63.603516	19.978027	61.385134
61.157227	23.647461	61.468249
64.011230	24.870605	61.548663
70.534668	26.501465	61.628985
66.457520	33.432617	61.712241
65.642090	25.686035	61.797566
68.496094	23.239746	61.884029
69.311523	5.300293	61.972986
73.388672	-2.854004	62.066480
77.058105	1.630859	62.167527
68.903809	0.000000	62.276535
59.934082	8.969727	62.387354
48.110352	13.454590	62.489823
51.779785	13.454590	62.576609
59.118652	15.493164	62.649082
61.564941	18.347168	62.713277
62.380371	33.432617	62.772927
66.865234	45.664062	62.830426
67.680664	47.294922	62.888595
69.311523	39.548340	62.949377
63.195801	26.909180	63.012055
63.603516	22.424316	63.073800
64.011230	14.270020	63.133304
66.865234	3.669434	63.191676
61.157227	7.746582	63.249014
58.303223	10.600586	63.302306
57.487793	7.338867	63.348466
59.118652	12.231445	63.387018
65.642090	4.484863	63.420624
64.826660	5.300293	63.453113
68.496094	23.647461	63.486751
69.719238	41.586914	63.523486
70.534668	37.102051	63.564960
66.457520	31.801758	63.610592
59.934082	34.248047	63.656506
63.603516	27.724609	63.699105
65.234375	27.316895	63.739138
65.642090	24.870605	63.778607
64.011230	19.570313	63.817709
68.496094	24.870605	63.856850
62.788086	31.394043	63.896414
63.603516	22.832031	63.934735
57.487793	3.669434	63.969150
58.710937	2.446289	63.997123
60.749512	2.446289	64.018489
68.496094	15.900879	64.036951
75.427246	28.540039	64.059047
80.319824	28.540039	64.091552
90.512695	33.432617	64.141028
75.427246	32.209473	64.209333
72.573242	35.878906	64.289542
66.865234	43.217773	64.374071
68.903809	47.294922	64.459422
62.788086	43.217773	64.543434
66.865234	39.956055	64.624472
64.011230	33.432617	64.702371
73.388672	32.617187	64.779228
72.573242	45.256348	64.858970
71.350098	52.187500	64.943098
72.573242	38.732910	65.030789
66.865234	9.377441	65.120610
68.088379	-5.708008	65.210015
77.058105	8.969727	65.300429
74.611816	22.832031	65.396100
68.088379	38.325195	65.496049
63.603516	41.179199	65.594729
63.603516	43.217773	65.688023
65.642090	43.625488	65.775434
70.942383	50.556641	65.859601
66.865234	47.294922	65.942832
62.380371	39.140625	66.023153
65.234375	42.810059	66.097935
61.564941	32.617187	66.166707
59.118652	19.570313	66.227849
57.487793	8.154297	66.278964
63.603516	8.969727	66.320561
66.457520	9.377441	66.356561
74.611816	13.046875	66.392428
75.834961	28.540039	66.433486
71.350098	36.694336	66.481062
68.496094	40.363770	66.532027
66.865234	32.209473	66.583068
67.680664	27.724609	66.632735
65.642090	36.694336	66.680503
67.272949	51.372070	66.725979
69.311523	51.372070	66.770076
67.680664	31.394043	66.813882
64.826660	15.900879	66.856292
53.818359	13.046875	66.892505
51.779785	5.300293	66.915696
57.487793	-5.708008	66.923967
69.719238	1.630859	66.923662
80.319824	5.300293	66.925880
79.096680	14.677734	66.938965
75.019531	27.316895	66.963482
67.680664	24.462891	66.994496
68.496094	21.201172	67.026968
65.642090	14.677734	67.058548
70.534668	25.686035	67.089244
67.272949	28.947754	67.120027
65.234375	37.102051	67.149897
66.865234	40.363770	67.177365
64.826660	30.986328	67.202297
65.234375	24.462891	67.224244
57.487793	23.239746	67.240965
56.672363	19.570313	67.248500
59.118652	11.823730	67.245438
62.788086	9.785156	67.234297
65.234375	-1.223145	67.218667
64.826660	8.154297	67.200911
62.788086	30.986328	67.181036
57.487793	31.801758	67.156590
63.603516	28.132324	67.126090
67.680664	21.608887	67.092735
69.719238	29.763184	67.060974
69.311523	28.540039	67.032803
71.757812	30.578613	67.009053
74.611816	28.540039	66.991476
77.465820	24.055176	66.982702
69.311523	20.385742	66.982449
58.710937	25.686035	66.984012
56.672363	24.870605	66.979061
55.856934	7.746582	66.963826
64.826660	11.416016	66.940180
60.749512	16.308594	66.911959
59.118652	11.416016	66.879183
59.118652	12.231445	66.840167
65.642090	28.947754	66.796519
68.088379	30.986328	66.752564
62.788086	34.655762	66.709970
64.418945	33.024902	66.667006
59.118652	32.209473	66.621806
67.272949	37.509766	66.574305
70.534668	37.509766	66.528404
73.388672	28.947754	66.488687
63.603516	23.647461	66.454699
64.011230	13.454590	66.421933
59.934082	14.270020	66.386940
63.195801	18.754883	66.348681
67.272949	19.978027	66.309056
61.564941	13.046875	66.269670
59.934082	17.531738	66.228195
58.303223	24.055176	66.181987
62.380371	23.239746	66.131093
70.534668	24.462891	66.079635
78.688965	27.724609	66.035190
75.019531	45.256348	66.002950
76.650391	49.333496	65.983036
73.388672	40.771484	65.973949
77.465820	39.956055	65.974992
79.504395	25.686035	65.987526
73.796387	16.308594	66.011661
69.719238	19.162598	66.043310
70.942383	18.347168	66.078780
71.350098	7.746582	66.117538
68.088379	12.639160	66.159075
72.980957	27.724609	66.202899
73.388672	41.586914	66.250681
72.573242	40.771484	66.303476
74.611816	19.570313	66.361217
69.311523	10.600586	66.423083
64.011230	12.639160	66.485181
66.865234	31.801758	66.544007
65.234375	30.986328	66.599327
68.496094	36.286621	66.651991
72.980957	48.110352	66.704528
83.581543	45.256348	66.762886
80.319824	36.286621	66.832630
69.311523	22.424316	66.911351
67.272949	14.677734	66.991382
69.719238	2.854004	67.069261
66.865234	-0.815430	67.145004
62.788086	8.969727	67.216698
66.865234	7.746582	67.282633
69.311523	22.424316	67.344713
74.611816	16.308594	67.406796
79.504395	9.377441	67.473530
74.611816	16.716309	67.547310
79.504395	40.363770	67.627741
80.319824	47.702637	67.715936
76.242676	48.518066	67.812092
78.688965	34.655762	67.914464
74.611816	19.162598	68.021804
77.465820	16.308594	68.133026
75.019531	24.870605	68.247622
72.573242	25.278320	68.364140
62.380371	13.046875	68.477767
65.642090	16.716309	68.583372
62.788086	6.523437	68.679495
67.680664	-5.708008	68.767106
71.757812	9.377441	68.849392
78.688965	23.647461	68.931755
79.912109	20.385742	69.019138
82.358398	27.316895	69.114330
74.611816	32.617187	69.216446
65.234375	28.947754	69.319176
64.011230	35.063477	69.415100
66.865234	36.286621	69.502071
68.903809	31.801758	69.582116
65.642090	19.978027	69.656429
64.826660	11.823730	69.723799
59.526367	13.454590	69.781792
66.457520	14.270020	69.829595
68.903809	-1.630859	69.870510
73.388672	-7.746582	69.909091
67.680664	5.300293	69.946902
65.642090	7.746582	69.981583
65.642090	17.124023	70.010667
68.496094	36.694336	70.034594
67.680664	39.140625	70.054855
70.942383	41.179199	70.072775
77.465820	24.870605	70.091653
75.427246	20.385742	70.115175
73.796387	21.201172	70.143320
70.534668	26.909180	70.173600
64.826660	24.055176	70.202245
66.457520	18.347168	70.225870
62.380371	7.746582	70.242967
59.934082	2.446289	70.251455
66.457520	7.746582	70.251074
63.195801	3.261719	70.244154
65.642090	10.600586	70.231640
66.865234	25.278320	70.214550
68.903809	30.986328	70.194929
65.642090	36.694336	70.173448
76.650391	37.509766	70.151928
82.358398	46.887207	70.136819
86.435547	36.694336	70.134808
69.311523	29.763184	70.144447
62.788086	26.501465	70.155559
57.487793	28.947754	70.158747
66.457520	19.162598	70.152225
67.272949	14.677734	70.139974
64.826660	12.639160	70.124410
66.457520	17.124023	70.105054
67.680664	23.239746	70.082637
61.564941	11.416016	70.056783
61.564941	20.793457	70.024784
66.865234	34.655762	69.986739
71.350098	30.986328	69.946923
77.873535	24.870605	69.910922
73.388672	28.132324	69.882027
77.058105	45.256348	69.860267
77.465820	42.402344	69.846201
70.942383	38.732910	69.838957
69.311523	32.617187	69.834486
72.980957	22.424316	69.831061
77.058105	19.978027	69.831207
74.611816	15.493164	69.837227
70.534668	13.046875	69.847563
65.234375	19.978027	69.857831
68.903809	22.424316	69.865132
72.165527	14.677734	69.870985
72.573242	11.008301	69.878234
73.796387	22.424316	69.888200
76.242676	29.355469	69.902143
72.980957	46.479492	69.920617
72.573242	48.518066	69.942219
64.826660	43.217773	69.963679
64.011230	35.878906	69.980589
73.796387	29.763184	69.993246
78.688965	34.655762	70.008040
75.427246	28.540039	70.029143
72.573242	28.947754	70.055069
72.573242	30.578613	70.083215
73.796387	28.540039	70.113025
70.942383	19.570313	70.144282
66.865234	18.754883	70.174641
64.826660	7.746582	70.200682
73.388672	22.424316	70.222681
74.611816	39.548340	70.245082
74.611816	34.655762	70.270734
71.757812	28.540039	70.299037
73.388672	24.055176	70.328767
79.504395	23.239746	70.361544
76.650391	21.201172	70.400086
77.058105	22.424316	70.444306
77.873535	25.278320	70.493579
81.135254	26.501465	70.549016
80.319824	27.724609	70.611993
82.766113	24.462891	70.683175
78.688965	18.347168	70.762113
77.465820	6.931152	70.846553
71.757812	1.223145	70.932944
65.642090	4.484863	71.016180
68.496094	18.347168	71.092353
75.019531	18.347168	71.163311
75.834961	21.201172	71.233606
77.873535	29.763184	71.305872
79.504395	36.286621	71.381657
82.766113	43.625488	71.462971
85.620117	26.909180	71.552370
80.319824	29.355469	71.650358
69.719238	26.909180	71.751623
72.573242	14.677734	71.849698
78.688965	15.493164	71.944946
80.727539	4.892578	72.041893
76.650391	0.000000	72.141968
67.680664	10.600586	72.240959
62.380371	22.832031	72.331637
55.449219	15.900879	72.407321
59.526367	14.270020	72.464649
69.311523	24.055176	72.507283
79.504395	28.947754	72.544735
80.319824	29.763184	72.585339
78.688965	38.732910	72.631587
75.427246	51.372070	72.681677
78.688965	40.363770	72.734095
69.719238	27.316895	72.787182
71.757812	21.201172	72.837531
71.757812	17.124023	72.883929
77.465820	23.647461	72.928540
74.611816	24.055176	72.973649
70.534668	18.754883	73.018113
64.826660	13.454590	73.057525
69.719238	19.978027	73.089287
70.534668	15.900879	73.114997
67.680664	10.600586	73.135867
71.757812	10.600586	73.151880
75.834961	19.978027	73.165703
78.688965	41.586914	73.181383
77.058105	57.080078	73.200961
73.796387	52.595215	73.223277
76.650391	43.625488	73.246790
71.757812	33.432617	73.270779
77.465820	25.278320	73.294876
75.427246	16.308594	73.320229
67.272949	4.077148	73.345040
68.496094	0.815430	73.364810
71.757812	2.854004	73.379104
59.934082	4.892578	73.387084
56.672363	5.300293	73.382815
64.826660	5.708008	73.364181
65.642090	18.347168	73.335492
70.534668	26.501465	73.301090
68.088379	27.316895	73.263412
65.234375	25.686035	73.221897
68.496094	21.201172	73.175477
75.834961	30.986328	73.127314
73.388672	34.655762	73.081609
70.534668	37.102051	73.038190
68.496094	29.355469	72.994322
70.942383	24.055176	72.948894
72.573242	29.355469	72.903201
73.796387	34.655762	72.859125
69.311523	24.462891	72.816532
57.487793	-0.407715	72.770259
64.826660	-7.338867	72.715057
65.234375	-1.223145	72.652248
64.418945	8.562012	72.584169
60.749512	23.239746	72.509846
65.642090	40.363770	72.428782
64.418945	48.925781	72.342654
73.796387	42.810059	72.254888
76.242676	50.964355	72.170898
69.311523	50.556641	72.092528
64.418945	56.672363	72.015324
75.019531	51.779785	71.937705
84.804687	36.694336	71.866628
83.173828	19.570313	71.809368
75.427246	8.969727	71.765037
72.573242	4.484863	71.727848
61.564941	0.815430	71.691090
63.603516	24.055176	71.648785
68.088379	29.355469	71.600587
70.942383	20.385742	71.550453
65.642090	27.724609	71.499810
62.788086	26.501465	71.445950
62.788086	35.471191	71.386183
66.865234	44.440918	71.321160
67.680664	47.294922	71.253545
68.903809	36.286621	71.185347
67.680664	37.509766	71.117199
70.534668	33.024902	71.049600
68.496094	27.316895	70.983237
72.165527	27.724609	70.918767
67.680664	25.686035	70.856387
62.788086	28.132324	70.793389
63.603516	17.531738	70.726334
57.487793	8.154297	70.653013
55.856934	8.562012	70.570358
54.633789	13.046875	70.476096
53.818359	19.570313	70.369566
57.487793	11.008301	70.251650
64.826660	16.716309	70.126630
73.388672	34.655762	70.002027
77.465820	49.333496	69.885451
70.534668	45.256348	69.779231
59.934082	48.110352	69.677653
55.041504	42.402344	69.571940
56.672363	39.956055	69.457463
62.788086	35.063477	69.335918
65.642090	22.424316	69.212143
61.157227	0.000000	69.088298
62.788086	-11.823730	68.963337
67.272949	-6.931152	68.838300
63.603516	12.639160	68.715143
68.496094	14.677734	68.594444
64.418945	17.124023	68.476754
67.680664	18.347168	68.362062
68.496094	33.432617	68.251208
64.011230	46.479492	68.144243
70.534668	49.333496	68.040673
67.680664	40.363770	67.941954
65.642090	27.724609	67.847648
63.603516	21.201172	67.755298
64.418945	13.454590	67.663519
67.680664	15.900879	67.573133
63.603516	14.270020	67.485028
61.564941	15.493164	67.397372
64.826660	6.523437	67.308952
66.865234	4.484863	67.221609
64.011230	16.308594	67.136565
69.311523	25.686035	67.054232
69.719238	38.732910	66.976716
61.564941	33.432617	66.903346
59.526367	35.878906	66.829297
62.380371	40.363770	66.752216
75.427246	53.002930	66.676711
76.242676	49.741211	66.610609
68.496094	47.294922	66.555374
59.526367	43.217773	66.504361
57.487793	29.355469	66.450147
61.564941	18.347168	66.390579
64.418945	24.870605	66.328319
61.157227	29.763184	66.265267
59.526367	19.162598	66.200133
61.564941	20.793457	66.131903
55.856934	24.870605	66.059930
52.187500	24.462891	65.981033
59.934082	35.878906	65.894217
62.788086	33.432617	65.803787
68.496094	33.432617	65.715035
67.680664	37.102051	65.631514
65.642090	48.925781	65.553609
59.934082	46.479492	65.478364
61.564941	44.848633	65.402630
59.118652	35.878906	65.325225
54.633789	27.724609	65.244270
57.487793	25.686035	65.157762
57.487793	27.724609	65.066365
59.118652	27.724609	64.971575
59.118652	24.462891	64.874502
63.195801	22.832031	64.776851
65.642090	19.162598	64.681535
60.749512	15.493164	64.589620
59.934082	24.870605	64.498905
62.380371	29.763184	64.408362
58.710937	31.801758	64.318184
66.457520	30.578613	64.229199
67.272949	38.732910	64.144767
69.311523	39.548340	64.067770
64.011230	53.410645	63.997843
59.934082	69.719238	63.931421
59.118652	51.779785	63.864665
60.341797	43.625488	63.796482
65.642090	34.655762	63.728831
66.865234	28.132324	63.665184
68.496094	26.909180	63.607890
62.788086	19.978027	63.556402
59.118652	-3.261719	63.506974
63.195801	-0.815430	63.457211
64.826660	27.316895	63.408785
58.303223	47.294922	63.361901
47.294922	54.633789	63.310648
53.002930	52.595215	63.249280
60.749512	50.556641	63.180463
59.526367	38.732910	63.109852
60.341797	32.617187	63.039212
65.234375	34.248047	62.970010
67.272949	34.248047	62.905572
72.573242	39.140625	62.849501
64.011230	30.986328	62.802546
64.418945	22.424316	62.761345
61.564941	15.900879	62.722896
70.942383	25.278320	62.688186
76.242676	35.471191	62.662650
69.311523	29.763184	62.649328
61.564941	27.724609	62.643396
62.788086	29.763184	62.638956
67.272949	45.256348	62.635730
64.826660	50.556641	62.635702
61.157227	61.157227	62.637657
55.856934	55.449219	62.637538
57.487793	48.110352	62.632122
61.564941	40.771484	62.622187
61.157227	30.578613	62.610414
68.903809	26.909180	62.599790
64.826660	24.055176	62.593165
64.011230	13.454590	62.590044
64.418945	3.669434	62.588879
60.341797	11.416016	62.588511
56.672363	13.454590	62.585907
53.818359	21.201172	62.577421
63.195801	24.870605	62.563329
66.865234	27.316895	62.549041
66.865234	26.909180	62.538971
64.418945	29.763184	62.533262
64.418945	36.694336	62.530434
59.526367	29.763184	62.528434
63.195801	36.694336	62.525620
62.788086	36.286621	62.522566
62.788086	17.124023	62.520037
66.865234	16.308594	62.518974
67.680664	24.055176	62.521670
63.603516	17.124023	62.528380
52.187500	10.600586	62.533987
55.856934	20.793457	62.532432
60.749512	23.239746	62.524254
66.457520	11.008301	62.514795
66.865234	5.708008	62.508516
74.611816	21.608887	62.509027
75.834961	39.548340	62.520519
56.264648	32.617187	62.540018
55.856934	41.179199	62.557073
59.934082	39.140625	62.567493
61.564941	34.655762	62.574031
64.418945	36.286621	62.579534
69.719238	35.471191	62.587363
69.311523	36.286621	62.600832
68.496094	34.655762	62.620634
71.757812	27.724609	62.646784
59.526367	14.677734	62.677253
55.041504	10.600586	62.705065
49.741211	9.785156	62.723350
48.925781	21.608887	62.728343
58.303223	34.655762	62.721285
64.418945	41.179199	62.709048
60.749512	40.363770	62.696591
59.118652	33.432617	62.683188
63.603516	37.509766	62.668254
67.680664	42.810059	62.654872
71.757812	42.402344	62.647377
74.611816	39.956055	62.649474
64.418945	23.647461	62.660617
64.011230	24.870605	62.675674
57.080078	23.647461	62.689738
53.410645	15.900879	62.698127
55.041504	5.300293	62.697770
56.264648	3.669434	62.689277
55.856934	4.484863	62.673989
55.449219	6.931152	62.652232
64.011230	18.347168	62.626248
68.088379	26.909180	62.601718
67.272949	24.870605	62.582780
64.826660	37.509766	62.569200
57.487793	42.810059	62.557322
57.487793	33.024902	62.542583
58.303223	35.471191	62.523415
62.788086	40.363770	62.501645
62.788086	29.763184	62.479985
61.157227	24.462891	62.459201
59.934082	13.046875	62.438098
58.710937	10.600586	62.415320
57.487793	15.493164	62.389683
63.603516	32.617187	62.361983
62.380371	27.724609	62.334916
64.011230	16.716309	62.309873
59.118652	10.600586	62.286039
59.118652	12.639160	62.261242
65.642090	23.239746	62.235980
77.465820	23.239746	62.216834
88.066406	33.432617	62.214257
79.096680	26.501465	62.233820
64.826660	20.793457	62.268823
56.264648	28.947754	62.306427
53.410645	30.986328	62.337479
56.264648	26.501465	62.359242
57.487793	22.832031	62.373187
57.487793	21.201172	62.381046
57.080078	16.308594	62.383300
63.603516	23.647461	62.381700
61.564941	24.870605	62.379207
63.603516	29.355469	62.377043
61.157227	42.810059	62.375087
62.788086	35.878906	62.373011
66.865234	31.801758	62.372108
72.573242	25.686035	62.376396
73.388672	36.694336	62.389918
62.788086	35.878906	62.411386
56.264648	38.732910	62.433348
55.856934	47.294922	62.449439
54.633789	34.655762	62.457660
53.002930	27.316895	62.457180
53.818359	28.540039	62.447431
53.002930	24.870605	62.428628
53.410645	11.008301	62.401094
52.595215	13.046875	62.365040
57.080078	21.608887	62.321746
62.380371	28.947754	62.275121
59.526367	25.686035	62.228577
59.934082	25.278320	62.182159
59.118652	25.686035	62.135161
58.710937	37.509766	62.087231
57.487793	51.779785	62.037710
59.934082	38.732910	61.986617
62.788086	24.462891	61.935789
59.118652	11.416016	61.886446
55.041504	17.124023	61.836324
53.002930	33.432617	61.781869
59.934082	37.102051	61.723013
60.341797	23.647461	61.663231
55.856934	11.823730	61.603484
62.788086	11.416016	61.543405
64.011230	5.300293	61.485857
59.934082	7.338867	61.432178
62.380371	19.162598	61.381070
55.856934	17.531738	61.330973
53.818359	14.677734	61.278572
61.564941	11.416016	61.223276
67.680664	15.493164	61.170418
67.272949	23.239746	61.125081
64.826660	41.179199	61.087723
57.487793	43.217773	61.054701
50.556641	30.578613	61.019535
51.779785	22.832031	60.977111
53.002930	20.385742	60.926945
55.041504	22.424316	60.870940
50.964355	11.416016	60.809741
59.526367	4.077148	60.744290
66.865234	13.046875	60.680204
69.311523	26.909180	60.624236
67.680664	35.063477	60.578861
64.011230	30.578613	60.542469
57.487793	25.686035	60.510621
57.487793	34.248047	60.478754
66.865234	55.856934	60.447651
67.272949	56.264648	60.422345
64.826660	44.440918	60.404633
59.526367	39.956055	60.391622
48.925781	19.978027	60.376898
54.633789	26.909180	60.355094
59.934082	24.055176	60.328158
60.749512	19.570313	60.300851
59.118652	8.969727	60.274610
59.118652	19.570313	60.248772
62.788086	26.501465	60.223882
62.788086	19.162598	60.201849
59.934082	18.347168	60.182783
57.487793	28.947754	60.164426
64.418945	35.471191	60.146553
66.865234	34.248047	60.132800
75.834961	40.363770	60.128458
77.058105	34.655762	60.138782
81.542969	32.617187	60.167272
73.388672	37.509766	60.213612
64.418945	39.548340	60.271482
60.749512	30.986328	60.332480
55.041504	8.562012	60.390616
56.672363	-5.708008	60.442426
47.294922	-13.454590	60.485034
49.333496	3.669434	60.514851
45.256348	17.124023	60.529962
47.294922	17.124023	60.529945
55.041504	22.832031	60.517522
55.449219	32.617187	60.497980
56.672363	33.432617	60.474233
59.934082	28.947754	60.448102
59.526367	30.986328	60.421652
63.195801	24.055176	60.396531
61.564941	23.239746	60.374096
69.311523	21.608887	60.356393
64.011230	23.239746	60.345475
59.526367	28.132324	60.339117
59.934082	25.686035	60.333479
61.564941	14.677734	60.327998
58.303223	-1.223145	60.322780
45.664062	-14.270020	60.313212
50.964355	0.815430	60.293398
52.187500	19.570313	60.263609
48.925781	21.608887	60.225505
45.664062	15.493164	60.177255
50.964355	5.708008	60.118190
50.964355	7.338867	60.050791
59.118652	21.201172	59.979040
56.264648	25.278320	59.906746
60.341797	27.724609	59.835720
60.749512	30.578613	59.767481
55.856934	28.132324	59.701974
53.002930	17.124023	59.635931
48.110352	10.600586	59.565375
50.556641	8.562012	59.487907
51.779785	3.669434	59.404244
55.449219	4.892578	59.317004
53.818359	8.969727	59.228260
58.710937	14.677734	59.139566
57.487793	18.347168	59.052835
59.934082	29.763184	58.969353
61.564941	55.041504	58.890454
62.788086	58.303223	58.817833
66.457520	39.956055	58.753317
72.573242	6.523437	58.700463
70.942383	4.484863	58.662545
56.264648	21.201172	58.635821
39.956055	30.986328	58.607389
41.179199	34.248047	58.565252
51.779785	23.239746	58.509220
65.642090	23.647461	58.449512
64.826660	21.201172	58.396212
63.603516	33.432617	58.351977
58.710937	22.424316	58.314300
53.818359	8.562012	58.278748
49.741211	3.261719	58.240334
50.964355	16.308594	58.196122
55.041504	40.363770	58.147065
60.749512	44.440918	58.097396
60.749512	40.771484	58.051265
61.564941	40.771484	58.010274
64.826660	34.655762	57.975518
66.457520	27.724609	57.949107
55.856934	21.608887	57.929620
53.002930	30.578613	57.910874
49.741211	25.686035	57.887712
51.372070	24.870605	57.858326
59.118652	19.162598	57.825062
57.080078	33.024902	57.792094
60.341797	33.024902	57.761264
58.710937	20.385742	57.733258
59.934082	32.209473	57.708298
54.633789	28.132324	57.685094
51.779785	30.986328	57.660377
55.041504	31.801758	57.632209
58.303223	40.363770	57.602594
61.564941	33.024902	57.575058
67.680664	29.763184	57.553711
66.865234	37.102051	57.542152
61.564941	26.501465	57.539735
48.518066	15.900879	57.539622
49.333496	14.270020	57.533676
49.333496	8.562012	57.519169
53.002930	7.746582	57.497682
62.380371	13.454590	57.473946
63.603516	19.162598	57.454298
62.788086	27.724609	57.441467
63.603516	31.801758	57.435263
57.487793	45.256348	57.434001
59.118652	48.925781	57.434888
49.741211	40.363770	57.434612
51.372070	28.947754	57.429156
52.187500	31.801758	57.417369
55.856934	47.294922	57.401370
61.564941	40.771484	57.385009
59.934082	21.608887	57.371854
63.603516	8.562012	57.363379
63.195801	13.454590	57.360774
58.710937	25.278320	57.363348
54.633789	32.617187	57.367328
50.964355	28.947754	57.368362
53.818359	19.978027	57.364334
56.672363	14.677734	57.356763
60.749512	16.308594	57.349137
60.749512	19.570313	57.344358
57.487793	23.239746	57.342517
60.341797	29.763184	57.342519
51.779785	35.063477	57.342673
48.925781	33.432617	57.338475
53.818359	41.586914	57.327662
53.002930	37.509766	57.312152
59.934082	23.647461	57.294852
60.749512	6.931152	57.279502
48.110352	2.446289	57.264960
40.363770	11.416016	57.242743
41.586914	17.531738	57.206153
55.856934	35.063477	57.158237
65.234375	23.239746	57.109839
55.041504	6.931152	57.067030
46.479492	23.239746	57.024461
43.625488	43.625488	56.974241
53.002930	43.625488	56.915482
50.556641	33.432617	56.852170
52.595215	32.617187	56.786289
53.818359	24.055176	56.718776
59.526367	36.694336	56.652452
58.303223	44.848633	56.590333
49.333496	46.887207	56.530794
45.256348	53.002930	56.467675
44.848633	32.617187	56.396600
45.256348	26.909180	56.316826
41.586914	11.008301	56.227973
50.964355	1.630859	56.131191
54.633789	5.708008	56.031865
54.633789	19.162598	55.934607
48.518066	45.256348	55.838783
48.518066	47.294922	55.741215
47.702637	26.909180	55.640264
51.779785	28.947754	55.536833
55.041504	30.986328	55.433927
53.410645	34.248047	55.333986
53.818359	35.063477	55.237088
55.449219	35.471191	55.143412
52.187500	35.878906	55.053017
47.294922	39.548340	54.963278
41.179199	37.509766	54.869227
39.140625	19.570313	54.766124
40.771484	2.854004	54.652239
47.702637	0.815430	54.530321
44.848633	7.746582	54.404183
39.956055	21.608887	54.273184
43.217773	34.248047	54.135220
48.110352	41.179199	53.992465
55.449219	42.402344	53.850640
53.818359	39.140625	53.714565
51.779785	39.956055	53.584659
48.110352	35.878906	53.458314
49.741211	38.732910	53.333467
55.041504	39.548340	53.211467
53.818359	24.055176	53.095204
49.741211	23.647461	52.984220
44.848633	23.239746	52.874643
50.964355	25.278320	52.764490
51.372070	19.978027	52.655937
48.925781	14.677734	52.550205
49.333496	15.900879	52.446205
44.440918	24.870605	52.342255
53.818359	33.432617	52.238461
53.410645	36.694336	52.138460
56.672363	35.878906	52.045292
56.672363	38.325195	51.960350
55.449219	35.878906	51.883887
53.002930	28.132324	51.814314
56.264648	32.617187	51.750642
62.788086	41.179199	51.695455
65.234375	59.526367	51.653353
67.680664	64.418945	51.627430
68.903809	43.217773	51.619228
53.818359	27.724609	51.625275
41.586914	21.201172	51.634102
36.694336	23.239746	51.633900
48.518066	14.270020	51.622401
55.856934	12.231445	51.606983
59.934082	26.501465	51.595872
59.118652	25.686035	51.592741
56.672363	34.655762	51.597231
49.741211	39.548340	51.605672
48.110352	48.110352	51.613164
53.002930	41.179199	51.618350
48.925781	36.286621	51.622399
47.702637	50.556641	51.624181
42.810059	40.363770	51.620798
48.110352	29.355469	51.610987
47.702637	15.493164	51.596444
45.664062	8.562012	51.578039
44.848633	4.892578	51.554576
49.741211	19.570313	51.526629
45.256348	25.686035	51.495610
39.548340	21.201172	51.459118
44.033203	31.394043	51.414442
44.033203	39.956055	51.362857
50.556641	39.548340	51.307622
60.341797	39.140625	51.254957
65.234375	44.440918	51.212941
59.934082	32.617187	51.184884
49.741211	36.694336	51.166007
35.471191	40.363770	51.145418
35.471191	30.986328	51.113040
39.956055	24.055176	51.066871
39.956055	13.046875	51.009942
41.586914	8.969727	50.944406
38.325195	2.854004	50.870722
42.402344	4.077148	50.789123
46.479492	-0.815430	50.702409
47.294922	-3.261719	50.614330
47.702637	-0.815430	50.526647
39.548340	15.085449	50.437721
42.810059	35.471191	50.344381
48.110352	45.664062	50.247890
52.595215	55.856934	50.153311
53.002930	55.449219	50.064512
58.303223	34.655762	49.984110
59.934082	25.686035	49.915129
62.788086	4.484863	49.860122
57.080078	5.708008	49.818943
55.856934	18.347168	49.788438
51.779785	22.832031	49.764941
48.925781	8.969727	49.744948
44.033203	6.931152	49.724465
42.810059	13.046875	49.699893
41.586914	10.600586	49.669196
46.479492	10.600586	49.633003
39.956055	16.716309	49.592138
33.432617	24.870605	49.543000
35.878906	26.909180	49.481516
43.625488	30.986328	49.409918
49.741211	36.286621	49.335058
45.664062	36.694336	49.261339
44.033203	27.316895	49.187824
49.333496	18.347168	49.114044
45.256348	16.308594	49.041375
44.033203	7.746582	48.968771
38.325195	11.008301	48.893093
39.956055	14.677734	48.811668
40.363770	10.600586	48.724307
33.024902	3.669434	48.630084
40.363770	1.223145	48.527589
40.363770	8.562012	48.419232
48.110352	19.978027	48.309357
53.002930	22.424316	48.203501
55.856934	26.501465	48.106950
50.964355	27.724609	48.020882
43.625488	18.347168	47.941164
37.102051	18.754883	47.860738
39.140625	21.201172	47.774901
41.179199	16.308594	47.683881
44.848633	16.308594	47.590579
45.664062	14.270020	47.497875
53.002930	18.347168	47.409157
50.964355	17.124023	47.327875
45.664062	24.462891	47.253239
39.140625	21.201172	47.179995
44.848633	25.686035	47.104835
45.664062	39.548340	47.029425
48.925781	46.887207	46.956640
55.041504	50.556641	46.889972
60.341797	42.810059	46.834676
63.603516	53.002930	46.795543
66.457520	37.102051	46.775737
62.788086	24.462891	46.775796
60.749512	29.763184	46.793105
53.818359	34.655762	46.823010
44.848633	26.501465	46.858374
43.217773	7.338867	46.891952
43.217773	-7.746582	46.920576
41.179199	-24.462891	46.943477
31.394043	-26.909180	46.957248
25.278320	-39.140625	46.955006
21.201172	-35.063477	46.930625
19.162598	-28.947754	46.880848
25.278320	-29.355469	46.806344
27.316895	-27.316895	46.711524
26.501465	-16.716309	46.599873
28.132324	-3.261719	46.472804
25.278320	3.669434	46.331045
29.355469	-4.892578	46.175408
21.201172	-27.316895	46.005937
12.639160	-51.779785	45.817975
6.931152	-64.011230	45.604417
5.300293	-70.534668	45.360972
7.338867	-86.843262	45.087427
1.223145	-91.328125	44.784472
0.000000	-90.512695	44.450757
1.630859	-95.812988	44.086208
1.223145	-96.628418	43.693031
2.446289	-88.881836	43.273475
5.300293	-99.074707	42.830459
0.407715	-96.220703	42.366048
-3.261719	-93.774414	41.878914
-7.338867	-86.435547	41.366316
-5.300293	-90.920410	40.827375
-8.154297	-97.851562	40.263101
-15.900879	-112.121582	39.672237
-23.239746	-133.730469	39.049860
-26.909180	-156.154785	38.391199
-21.608887	-164.716797	37.696125
-19.162598	-170.832520	36.969484
-20.793457	-179.394531	36.215717
-23.647461	-178.579102	35.435883
-23.647461	-179.394531	34.630053
-23.239746	-181.025391	33.799611
-15.085449	-174.501953	32.948899
-20.793457	-184.287109	32.082623
-23.647461	-194.887695	31.200791
-28.132324	-194.887695	30.300858
-30.986328	-185.102539	29.380734
-31.394043	-183.063965	28.439516
-28.132324	-185.917969	27.479041
-19.162598	-197.741699	26.505155
-21.608887	-223.427734	25.524415
-28.947754	-256.044922	24.537306
-35.063477	-264.606934	23.539047
-42.810059	-265.014648	22.524019
-39.956055	-256.860352	21.489120
-34.655762	-254.006348	20.437195
-39.548340	-269.499512	19.372370
-37.509766	-273.168945	18.295706
-42.810059	-279.284668	17.207264
-34.655762	-283.361816	16.108614
-28.540039	-280.100098	15.005872
-29.355469	-281.323242	13.905523
-23.647461	-275.207520	12.811292
-29.355469	-278.061523	11.725336
-27.316895	-284.584961	10.647459
-31.801758	-296.000977	9.576819
-42.402344	-306.193848	8.509609
-41.179199	-294.777832	7.440369
-38.732910	-304.155273	6.368813
-33.024902	-319.648437	5.299280
-33.840332	-332.695312	4.236229
-34.655762	-324.541016	3.181340
-34.655762	-335.549316	2.134708
-43.217773	-340.034180	1.094597
-38.325195	-337.587891	0.058589
-40.363770	-339.626465	-0.972625
-37.509766	-344.519043	-1.997216
-35.878906	-338.811035	-3.013016
-34.655762	-329.433594	-4.017426
-37.509766	-323.725586	-5.009588
-37.509766	-328.210449	-5.990190
-34.655762	-337.587891	-6.958728
-41.586914	-343.295898	-7.915050
-48.110352	-340.034180	-8.863312
-51.779785	-353.488770	-9.809094
-51.372070	-376.728516	-10.755048
-47.702637	-377.543945	-11.699959
-43.217773	-368.981934	-12.639669
-33.840332	-375.913086	-13.567641
-36.694336	-383.251953	-14.478079
-33.432617	-376.728516	-15.368998
-46.479492	-373.059082	-16.242810
-53.002930	-360.012207	-17.107085
-55.856934	-360.419922	-17.968950
-53.818359	-363.273926	-18.830286
-50.964355	-368.166504	-19.689141
-48.110352	-356.342773	-20.541941
-40.363770	-351.857910	-21.383780
-33.432617	-373.874512	-22.207629
-35.471191	-390.998535	-23.008297
-46.479492	-401.191406	-23.788136
-53.002930	-400.375977	-24.555302
-61.157227	-397.929687	-25.318025
-62.380371	-404.860840	-26.082023
-63.603516	-417.907715	-26.849542
-60.749512	-397.114258	-27.619831
-56.672363	-377.951660	-28.389704
-55.856934	-377.136230	-29.155267
-59.526367	-376.728516	-29.915374
-60.749512	-361.235352	-30.671509
-57.080078	-357.158203	-31.423700
-54.633789	-375.097656	-32.169086
-53.818359	-377.543945	-32.904729
-59.934082	-393.444824	-33.630833
-66.865234	-403.229980	-34.351887
-63.195801	-403.229980	-35.071646
-59.118652	-397.929687	-35.788235
-50.556641	-391.406250	-36.495688
-51.779785	-404.045410	-37.188429
-59.118652	-415.461426	-37.866718
-77.465820	-416.276855	-38.539494
-83.581543	-397.114258	-39.219472
-75.834961	-381.621094	-39.911610
-66.457520	-389.367676	-40.609703
-55.449219	-391.406250	-41.302894
-48.110352	-385.698242	-41.980501
-52.595215	-368.981934	-42.636951
-59.118652	-370.205078	-43.274654
-64.826660	-381.621094	-43.899894
-67.680664	-391.406250	-44.518041
-75.019531	-400.783691	-45.133694
-75.834961	-389.367676	-45.751138
-69.719238	-388.959961	-46.370394
-64.826660	-403.229980	-46.986444
-64.011230	-419.538574	-47.594395
-68.496094	-401.191406	-48.193439
-64.011230	-386.105957	-48.784316
-63.195801	-377.136230	-49.365381
-59.934082	-381.621094	-49.934006
-58.303223	-379.174805	-50.487801
-56.672363	-385.290527	-51.024712
-62.380371	-380.397949	-51.545157
-61.564941	-366.127930	-52.051690
-59.118652	-365.312500	-52.544837
-57.080078	-359.196777	-53.022653
-56.264648	-360.012207	-53.483401
-62.788086	-363.273926	-53.928122
-59.934082	-379.990234	-54.359537
-59.118652	-397.929687	-54.777795
-61.564941	-395.483398	-55.182519
-67.680664	-383.659668	-55.576574
-68.903809	-383.659668	-55.964206
-74.611816	-396.706543	-56.349047
-76.650391	-388.959961	-56.734675
-74.611816	-373.874512	-57.122684
-72.980957	-375.913086	-57.511595
-68.088379	-381.213379	-57.898281
-63.195801	-369.389648	-58.278152
-59.118652	-365.720215	-58.646191
-61.564941	-373.059082	-58.999762
-59.934082	-355.527344	-59.338937
-61.157227	-353.896484	-59.664117
-68.903809	-363.273926	-59.977844
-68.496094	-377.136230	-60.284593
-67.680664	-380.805664	-60.585962
-75.834961	-371.428223	-60.883486
-79.504395	-373.874512	-61.182061
-80.727539	-376.728516	-61.485715
-77.873535	-386.105957	-61.794758
-75.834961	-395.483398	-62.106905
-75.019531	-384.882812	-62.419654
-72.165527	-347.780762	-62.730935
-66.457520	-333.918457	-63.037274
-61.564941	-349.003906	-63.333540
-64.826660	-366.127930	-63.616665
-71.350098	-364.089355	-63.889089
-67.272949	-329.025879	-64.154223
-70.534668	-324.948730	-64.412547
-72.980957	-341.665039	-64.665385
-75.834961	-355.935059	-64.915610
-68.088379	-355.527344	-65.163186
-68.088379	-366.127930	-65.404651
-64.826660	-368.166504	-65.637138
-63.195801	-361.235352	-65.858667
-66.457520	-351.042480	-66.068644
-75.019531	-350.227051	-66.270908
-75.834961	-337.180176	-66.471164
-72.980957	-324.541016	-66.671221
-74.611816	-322.094727	-66.870021
-72.980957	-307.416992	-67.067090
-71.350098	-301.301270	-67.261443
-71.757812	-311.086426	-67.451821
-69.719238	-316.386719	-67.637454
-72.165527	-320.871582	-67.818041
-73.796387	-322.910156	-67.994799
-77.058105	-332.287598	-68.170072
-74.611816	-347.780762	-68.345242
-73.388672	-347.780762	-68.519381
-73.796387	-343.295898	-68.691173
-74.611816	-329.433594	-68.860652
-71.757812	-322.094727	-69.027531
-64.011230	-316.794434	-69.188431
-63.195801	-324.541016	-69.338422
-66.457520	-321.687012	-69.476232
-66.457520	-306.193848	-69.603768
-72.165527	-295.593262	-69.723719
-68.088379	-295.593262	-69.838230
-68.088379	-297.224121	-69.946785
-66.457520	-315.979004	-70.048039
-67.272949	-315.979004	-70.141575
-72.165527	-309.455566	-70.228929
-75.019531	-296.000977	-70.313824
-71.757812	-284.992676	-70.398210
-62.788086	-293.146973	-70.478702
-61.564941	-302.116699	-70.549500
-61.157227	-297.224121	-70.607864
-64.011230	-300.893555	-70.654509
-70.942383	-320.871582	-70.693132
-72.165527	-327.395020	-70.728767
-70.942383	-307.009277	-70.763654
-61.157227	-278.876953	-70.794899
-61.157227	-272.353516	-70.817171
-61.157227	-275.207520	-70.828285
-58.303223	-284.584961	-70.827983
-55.449219	-278.061523	-70.814534
-49.333496	-277.246094	-70.784693
-43.625488	-287.031250	-70.733771
-41.179199	-287.846680	-70.657529
-45.664062	-285.808105	-70.555588
-48.925781	-288.662109	-70.431791
-57.080078	-313.532715	-70.292291
-55.856934	-311.086426	-70.142766
-60.341797	-287.031250	-69.986505
-61.157227	-260.529785	-69.826227
-56.672363	-256.860352	-69.662710
-54.633789	-281.730957	-69.493596
-53.410645	-289.069824	-69.316745
-57.080078	-282.138672	-69.132480
-58.303223	-256.452637	-68.943258
-58.303223	-231.582031	-68.751109
-51.372070	-230.766602	-68.554868
-48.925781	-234.843750	-68.350643
-44.848633	-245.036621	-68.134833
-49.333496	-265.422363	-67.906583
-51.372070	-282.954102	-67.668517
-54.633789	-279.284668	-67.424437
-58.303223	-262.568359	-67.178085
-58.710937	-258.083496	-66.932713
-56.672363	-251.152344	-66.689179
-56.264648	-256.860352	-66.446583
-53.002930	-262.976074	-66.203532
-48.110352	-278.061523	-65.957195
-46.887207	-256.452637	-65.704232
-38.732910	-231.174316	-65.441139
-32.617187	-223.835449	-65.162440
-40.771484	-226.689453	-64.865921
-46.479492	-212.011719	-64.556878
-53.002930	-209.157715	-64.243059
-53.410645	-233.620605	-63.930043
-52.187500	-248.298340	-63.619729
-39.956055	-253.190918	-63.308573
-42.810059	-260.937500	-62.990941
-41.179199	-258.898926	-62.665319
-44.848633	-251.152344	-62.333268
-46.479492	-257.268066	-61.997355
-51.372070	-251.967773	-61.661216
-50.964355	-232.397461	-61.328105
-50.964355	-236.474609	-60.999305
-45.256348	-235.251465	-60.673362
-35.471191	-208.342285	-60.344917
-28.540039	-161.862793	-60.005969
-29.355469	-177.355957	-59.651352
-33.024902	-212.827148	-59.281720
-33.024902	-236.882324	-58.900285
-45.256348	-232.397461	-58.512158
-47.294922	-219.350586	-58.125012
-47.702637	-224.243164	-57.743601
-44.033203	-221.796875	-57.367852
-44.848633	-228.320312	-56.996296
-45.256348	-237.697754	-56.628706
-44.440918	-248.298340	-56.265502
-43.217773	-237.290039	-55.906223
-44.033203	-229.951172	-55.550429
-37.509766	-220.166016	-55.196727
-27.316895	-188.771973	-54.839504
-24.055176	-189.587402	-54.471369
-20.793457	-207.526855	-54.087956
-32.617187	-215.273437	-53.690896
-41.179199	-207.526855	-53.288828
-32.209473	-197.333984	-52.887649
-30.986328	-185.510254	-52.484957
-33.840332	-192.849121	-52.078993
-36.286621	-206.711426	-51.672154
-32.209473	-202.634277	-51.265870
-30.986328	-199.372559	-50.858722
-35.878906	-198.964844	-50.450750
-39.140625	-207.526855	-50.045524
-46.479492	-210.788574	-49.648273
-37.509766	-198.557129	-49.261410
-37.102051	-187.956543	-48.881978
-33.432617	-175.725098	-48.506505
-28.132324	-172.463379	-48.131778
-24.870605	-174.909668	-47.753553
-19.162598	-167.570801	-47.367780
-24.462891	-146.777344	-46.972743
-28.540039	-149.631348	-46.571633
-30.986328	-184.694824	-46.169323
-34.655762	-196.518555	-45.769611
-30.578613	-193.256836	-45.374299
-35.471191	-187.956543	-44.983710
-38.732910	-188.771973	-44.600396
-31.394043	-175.317383	-44.225501
-24.870605	-169.609375	-43.854326
-26.501465	-170.017090	-43.482165
-21.608887	-165.124512	-43.107312
-19.978027	-168.386230	-42.727712
-19.978027	-161.455078	-42.341838
-13.046875	-169.609375	-41.948129
-11.823730	-172.055664	-41.543392
-9.377441	-168.793945	-41.125446
-8.969727	-148.815918	-40.693615
-8.154297	-147.592773	-40.247910
-14.270020	-143.107910	-39.790501
-26.501465	-143.515625	-39.328609
-34.655762	-156.562500	-38.873098
-29.763184	-171.647949	-38.430370
-31.801758	-173.686523	-38.000416
-32.617187	-159.824219	-37.583111
-34.655762	-161.047363	-37.179819
-26.909180	-165.124512	-36.789579
-22.424316	-152.485352	-36.407498
-20.385742	-121.091309	-36.028679
-17.531738	-103.967285	-35.650376
-19.570313	-121.091309	-35.271461
-20.793457	-155.747070	-34.893005
-15.085449	-146.777344	-34.515062
-14.677734	-136.584473	-34.135221
-6.523437	-132.915039	-33.750113
-4.892578	-133.730469	-33.355560
-16.308594	-141.884766	-32.952406
-21.608887	-148.000488	-32.548425
-29.763184	-131.691895	-32.152005
-28.132324	-134.953613	-31.768468
-20.793457	-156.154785	-31.396990
-20.793457	-177.763672	-31.033132
-15.900879	-169.609375	-30.673716
-10.600586	-139.846191	-30.314958
-8.969727	-117.421875	-29.952705
-10.600586	-90.512695	-29.585676
-6.523437	-85.212402	-29.213830
-1.223145	-104.782715	-28.834671
-1.223145	-126.799316	-28.445073
-7.338867	-145.146484	-28.046131
-24.870605	-145.554199	-27.646508
-29.763184	-129.653320	-27.258757
-22.832031	-114.567871	-26.888101
-17.531738	-121.091309	-26.530408
-20.385742	-128.837891	-26.181609
-19.570313	-130.876465	-25.841563
-14.270020	-126.799316	-25.509157
-9.377441	-132.507324	-25.180111
-12.639160	-132.915039	-24.851514
-14.270020	-122.722168	-24.524545
-8.562012	-126.799316	-24.199690
-8.969727	-121.499023	-23.874731
-7.338867	-103.151855	-23.548299
-8.562012	-91.328125	-23.220377
-14.270020	-97.851562	-22.893091
-12.639160	-95.812988	-22.569646
-3.261719	-81.135254	-22.248388
-1.223145	-99.890137	-21.923666
0.000000	-107.636719	-21.592121
0.407715	-86.435547	-21.253125
-6.523437	-86.435547	-20.908659
-15.085449	-105.190430	-20.565114
-18.347168	-127.614746	-20.229987
-17.531738	-135.769043	-19.906996
-12.231445	-120.275879	-19.594968
-11.008301	-97.036133	-19.290412
-11.823730	-87.250977	-18.991490
-13.046875	-79.504395	-18.698689
-8.969727	-73.796387	-18.411824
-4.484863	-73.796387	-18.127931
-8.562012	-83.581543	-17.844815
-14.270020	-89.289551	-17.565203
-11.823730	-86.843262	-17.292656
-15.900879	-83.581543	-17.028427
-11.416016	-75.834961	-16.772737
-9.785156	-85.212402	-16.523754
-14.270020	-103.151855	-16.280580
-15.493164	-108.044434	-16.045456
-10.600586	-101.113281	-15.818799
-8.969727	-88.881836	-15.597786
-11.008301	-83.989258	-15.380788
-5.300293	-79.912109	-15.166994
-4.892578	-85.212402	-14.953912
0.815430	-75.834961	-14.738521
1.630859	-68.903809	-14.517833
0.000000	-58.710937	-14.290819
-5.708008	-55.856934	-14.060147
-3.261719	-59.526367	-13.829009
0.815430	-67.272949	-13.596813
-4.892578	-68.903809	-13.362566
-4.077148	-53.818359	-13.128319
-2.446289	-64.826660	-12.894963
5.300293	-82.766113	-12.659595
1.630859	-97.851562	-12.419020
0.815430	-84.396973	-12.173834
-0.815430	-88.474121	-11.926324
3.261719	-97.443848	-11.676855
5.708008	-92.551270	-11.423422
1.630859	-79.912109	-11.165186
7.746582	-62.788086	-10.902528
8.562012	-51.779785	-10.633570
9.785156	-38.732910	-10.356522
6.931152	-42.810059	-10.071935
2.854004	-53.410645	-9.782699
4.484863	-53.818359	-9.491792
4.077148	-66.457520	-9.199916
-0.407715	-64.011230	-8.908387
0.407715	-65.642090	-8.619743
-1.223145	-65.234375	-8.335336
-1.223145	-70.534668	-8.055915
-0.407715	-68.088379	-7.781762
1.630859	-62.788086	-7.511962
-1.223145	-64.418945	-7.246067
4.484863	-56.264648	-6.983642
8.562012	-50.964355	-6.721486
16.308594	-55.449219	-6.454187
15.900879	-58.303223	-6.177224
17.124023	-47.702637	-5.889184
18.754883	-2.854004	-5.589908
18.754883	36.694336	-5.279042
13.454590	2.446289	-4.958400
13.454590	-55.449219	-4.631548
14.677734	-68.496094	-4.300182
18.754883	-39.548340	-3.963141
17.531738	-41.586914	-3.618893
13.454590	-60.341797	-3.268770
11.008301	-62.380371	-2.916512
7.746582	-66.865234	-2.565799
0.000000	-65.642090	-2.221320
3.669434	-45.664062	-1.887118
7.746582	-31.394043	-1.562114
10.600586	-17.531738	-1.242378
11.416016	-22.832031	-0.925221
15.493164	-23.647461	-0.608612
8.562012	-27.316895	-0.292322
7.746582	-23.647461	0.020545
6.931152	-24.055176	0.327354
10.600586	-28.132324	0.628377
15.493164	-34.655762	0.926559
15.493164	-26.501465	1.225250
13.454590	-28.132324	1.524863
6.523437	-36.694336	1.822149
7.338867	-48.110352	2.112939
3.669434	-54.633789	2.394865
12.639160	-44.440918	2.668676
16.308594	-24.055176	2.939163
17.531738	-17.531738	3.210799
15.085449	-15.900879	3.484210
19.162598	-29.763184	3.759135
18.347168	-30.578613	4.036502
19.570313	-28.132324	4.316873
16.308594	-12.639160	4.599389
17.124023	-0.815430	4.882478
12.639160	-15.493164	5.164209
9.377441	-20.385742	5.441350
12.231445	-32.617187	5.711674
8.562012	-47.294922	5.974887
11.008301	-40.363770	6.230497
15.493164	-26.501465	6.480080
14.270020	-26.909180	6.726325
12.231445	-24.055176	6.969124
16.308594	-9.785156	7.208057
21.608887	-12.639160	7.446046
15.900879	-17.124023	7.685241
19.978027	-17.124023	7.924801
24.870605	-13.454590	8.166384
14.270020	-11.823730	8.410502
12.231445	2.854004	8.651964
7.746582	6.931152	8.885604
8.154297	-14.270020	9.108744
18.754883	-23.647461	9.323448
15.900879	-1.223145	9.534799
12.231445	24.055176	9.743047
12.231445	-3.261719	9.945438
11.416016	-24.462891	10.140845
8.969727	-39.140625	10.328310
13.454590	-28.947754	10.507672
11.416016	-16.308594	10.680290
15.493164	-7.746582	10.847466
12.231445	1.223145	11.010019
15.493164	11.416016	11.168204
16.308594	16.716309	11.323123
18.754883	14.677734	11.476689
14.270020	22.832031	11.629123
17.531738	6.931152	11.779459
16.308594	5.708008	11.927850
20.385742	33.432617	12.075511
15.493164	13.046875	12.222857
13.454590	-11.823730	12.367713
10.600586	-9.785156	12.506932
18.754883	22.832031	12.640731
16.716309	19.162598	12.772215
14.270020	-6.931152	12.901777
17.531738	-13.046875	13.028406
26.501465	-11.823730	13.155528
28.540039	6.931152	13.289092
30.578613	1.630859	13.432629
29.355469	-1.630859	13.586821
22.424316	-9.785156	13.749095
19.570313	4.892578	13.914203
20.385742	8.562012	14.078736
15.493164	19.978027	14.240941
10.600586	22.832031	14.397112
16.308594	7.746582	14.545002
17.124023	6.931152	14.686758
22.424316	15.900879	14.825829
19.162598	-0.815430	14.964334
8.969727	-5.708008	15.099153
12.639160	0.815430	15.225064
23.647461	10.600586	15.344481
27.316895	11.416016	15.465282
30.578613	16.716309	15.592956
34.248047	23.239746	15.730697
33.432617	30.986328	15.880476
28.540039	21.608887	16.040840
28.132324	23.239746	16.208249
28.947754	12.231445	16.380922
33.432617	7.746582	16.559940
36.286621	46.479492	16.748146
37.102051	58.303223	16.947819
30.578613	48.925781	17.157692
28.540039	3.261719	17.373336
31.801758	-3.669434	17.592334
37.102051	-4.892578	17.816875
33.024902	-0.815430	18.049041
30.986328	0.407715	18.286959
27.724609	-2.446289	18.527118
24.462891	12.639160	18.766059
27.724609	28.540039	19.001872
32.209473	36.694336	19.236486
32.209473	42.402344	19.472922
43.625488	37.509766	19.715027
38.325195	30.578613	19.966893
31.801758	30.986328	20.226315
32.209473	17.531738	20.487966
22.424316	7.338867	20.747399
24.462891	8.154297	20.999944
27.724609	22.424316	21.245005
33.024902	31.801758	21.486306
34.655762	11.823730	21.727832
36.694336	10.600586	21.972105
39.956055	24.462891	22.221101
44.440918	32.209473	22.477769
51.372070	45.256348	22.746528
51.372070	46.479492	23.031365
49.741211	44.440918	23.332646
44.033203	38.732910	23.646953
41.586914	47.702637	23.969295
43.625488	57.487793	24.296721
42.402344	57.080078	24.628762
40.771484	67.272949	24.964326
31.394043	47.294922	25.299259
34.248047	20.793457	25.628632
28.132324	-3.261719	25.949781
37.102051	3.669434	26.262633
33.432617	9.377441	26.569378
32.209473	25.686035	26.870077
32.209473	43.625488	27.163082
34.248047	70.534668	27.448648
39.140625	69.311523	27.729169
41.179199	52.187500	28.008218
45.664062	48.110352	28.289105
39.956055	48.925781	28.572843
34.248047	54.633789	28.855685
36.694336	46.479492	29.133518
44.848633	42.402344	29.408206
48.925781	54.633789	29.685599
46.887207	60.749512	29.969033
46.887207	63.195801	30.257936
42.402344	52.187500	30.550042
43.217773	53.002930	30.842759
34.248047	36.694336	31.132644
26.501465	24.870605	31.412988
43.217773	42.810059	31.681893
42.810059	40.363770	31.946237
38.325195	29.355469	32.208946
44.033203	43.217773	32.468856
44.033203	75.834961	32.727639
35.471191	67.272949	32.984327
36.694336	59.934082	33.234566
35.471191	64.418945	33.476459
35.878906	54.633789	33.709916
37.102051	46.479492	33.935286
35.471191	34.655762	34.153022
42.402344	35.878906	34.364526
41.179199	31.801758	34.572750
48.110352	25.278320	34.780622
34.248047	31.394043	34.987618
31.394043	52.595215	35.187349
34.248047	69.311523	35.375544
31.394043	54.633789	35.552526
38.325195	45.256348	35.719690
37.102051	47.294922	35.879874
40.363770	65.234375	36.035262
39.140625	71.350098	36.186979
39.956055	74.611816	36.335461
44.848633	61.564941	36.482089
46.887207	51.779785	36.630115
47.294922	73.796387	36.781782
44.440918	90.920410	36.936766
36.694336	100.705566	37.091328
26.909180	76.242676	37.237933
21.201172	34.655762	37.368112
19.978027	4.892578	37.476584
27.316895	23.239746	37.564002
30.578613	43.217773	37.635622
35.471191	52.187500	37.697009
39.140625	49.741211	37.752954
37.102051	50.964355	37.806323
42.810059	59.934082	37.858568
40.771484	59.934082	37.911614
36.286621	54.633789	37.964619
39.548340	52.187500	38.015493
38.325195	51.372070	38.064495
39.140625	50.556641	38.112086
35.471191	52.187500	38.157422
38.325195	61.157227	38.199596
36.694336	59.934082	38.238812
29.763184	53.002930	38.273236
28.947754	38.732910	38.298765
29.355469	35.878906	38.313633
41.179199	33.432617	38.321413
38.325195	44.440918	38.327987
36.694336	67.272949	38.334582
44.848633	87.250977	38.341725
46.479492	88.881836	38.353668
41.179199	76.242676	38.371788
48.925781	62.788086	38.395463
53.818359	59.118652	38.428381
48.110352	59.118652	38.473193
32.617187	52.187500	38.523531
32.617187	57.080078	38.569451
28.947754	59.526367	38.606073
30.986328	52.595215	38.632385
32.209473	57.080078	38.649257
32.617187	55.041504	38.658384
35.471191	68.903809	38.661392
34.248047	65.234375	38.659841
32.617187	55.856934	38.653617
42.402344	87.250977	38.644331
45.664062	85.620117	38.637701
42.402344	64.011230	38.637041
39.140625	62.788086	38.640367
36.286621	81.135254	38.644175
37.102051	80.727539	38.646297
42.402344	63.603516	38.647879
42.402344	53.002930	38.651942
41.586914	50.556641	38.659547
44.033203	53.818359	38.670740
47.294922	39.956055	38.687275
48.518066	40.363770	38.711569
37.509766	43.625488	38.741854
29.355469	55.041504	38.770222
34.655762	72.980957	38.790946
41.179199	83.581543	38.806707
49.741211	95.812988	38.824782
53.002930	79.504395	38.852117
53.818359	75.427246	38.892439
53.002930	68.496094	38.946189
47.702637	67.680664	39.011096
50.964355	64.011230	39.084443
55.041504	65.642090	39.167164
52.595215	81.135254	39.261102
45.256348	68.496094	39.363510
36.694336	56.672363	39.467147
37.102051	55.449219	39.565532
44.440918	66.865234	39.658690
44.848633	60.749512	39.750831
43.625488	63.603516	39.843725
42.402344	82.358398	39.936383
39.140625	70.534668	40.026898
44.848633	52.187500	40.114737
48.925781	59.118652	40.203141
51.779785	83.173828	40.296383
47.702637	86.435547	40.395646
45.664062	85.212402	40.498623
48.110352	86.843262	40.603541
46.887207	83.173828	40.710628
53.002930	85.212402	40.821280
48.925781	79.912109	40.937041
48.110352	72.573242	41.056807
48.110352	60.749512	41.178771
44.848633	55.856934	41.301636
44.033203	46.479492	41.423303
45.256348	61.157227	41.542734
40.363770	79.096680	41.659050
44.440918	74.611816	41.771089
51.779785	89.289551	41.881714
57.487793	106.821289	41.997298
50.964355	92.143555	42.120708
45.664062	64.826660	42.248140
45.664062	61.157227	42.374779
47.294922	70.942383	42.499564
46.887207	81.542969	42.623198
48.110352	75.019531	42.746139
45.664062	51.372070	42.868181
43.217773	39.140625	42.987630
44.440918	45.256348	43.102873
46.479492	62.380371	43.214514
46.479492	67.680664	43.323991
53.002930	69.311523	43.433536
50.964355	68.903809	43.545924
55.041504	62.788086	43.662620
57.080078	75.019531	43.785449
55.041504	94.997559	43.915611
53.002930	110.490723	44.051565
47.294922	103.559570	44.189800
49.333496	102.744141	44.327069
49.333496	91.735840	44.462843
41.179199	74.611816	44.595440
44.848633	59.118652	44.721545
45.256348	64.826660	44.841213
47.702637	74.611816	44.956430
48.518066	86.843262	45.068882
49.741211	93.774414	45.179971
48.518066	80.319824	45.290176
41.179199	77.058105	45.397172
44.033203	99.482422	45.497565
44.848633	103.967285	45.591335
53.002930	99.482422	45.682004
50.964355	82.766113	45.773578
51.779785	80.319824	45.867207
47.294922	82.766113	45.961414
41.586914	101.113281	46.052432
42.402344	110.490723	46.136347
41.179199	93.774414	46.212000
35.471191	80.727539	46.277759
40.771484	80.319824	46.332074
41.586914	90.920410	46.376908
43.217773	77.058105	46.414891
48.518066	69.719238	46.448757
44.848633	99.482422	46.480907
45.664062	86.435547	46.511064
59.526367	63.603516	46.542390
69.311523	66.457520	46.584870
78.688965	85.620117	46.649197
62.380371	84.396973	46.737528
50.964355	105.190430	46.839578
35.471191	116.198730	46.940267
33.024902	105.598145	47.027770
37.509766	108.452148	47.098415
44.440918	114.975586	47.156426
48.110352	100.297852	47.208098
45.664062	81.135254	47.256770
39.956055	71.757812	47.300706
36.694336	61.157227	47.335576
39.140625	73.388672	47.359185
44.033203	83.989258	47.373730
49.741211	89.697266	47.384321
47.702637	103.559570	47.394873
43.217773	90.920410	47.404628
44.033203	88.066406	47.410934
49.741211	88.881836	47.414690
48.518066	90.512695	47.418900
48.925781	97.443848	47.424503
49.741211	103.559570	47.431536
56.672363	112.529297	47.442284
49.741211	106.413574	47.458601
44.848633	85.212402	47.477114
39.548340	65.234375	47.491918
38.732910	68.088379	47.498884
41.179199	94.997559	47.497179
49.741211	93.774414	47.490520
51.372070	72.165527	47.484706
56.672363	88.881836	47.484205
60.749512	114.975586	47.493059
64.826660	99.074707	47.515442
63.603516	88.881836	47.553607
64.418945	101.113281	47.607444
59.934082	109.675293	47.675113
54.633789	100.297852	47.752383
54.633789	96.628418	47.834774
57.487793	99.482422	47.921326
59.526367	91.735840	48.013793
57.080078	99.482422	48.112990
52.187500	99.890137	48.216470
56.264648	84.396973	48.321791
54.633789	91.328125	48.429186
53.410645	117.829590	48.538340
48.925781	99.074707	48.646812
45.664062	55.856934	48.750982
44.848633	49.741211	48.847832
46.479492	73.388672	48.936733
51.779785	87.250977	49.019987
55.856934	110.490723	49.102048
63.195801	116.198730	49.188344
56.672363	99.482422	49.281807
56.672363	92.143555	49.380515
56.672363	88.881836	49.482411
65.642090	91.328125	49.589601
66.865234	119.052734	49.706766
51.779785	112.121582	49.832367
34.655762	83.989258	49.953788
34.248047	65.642090	50.058023
41.179199	81.135254	50.142851
41.179199	85.620117	50.212595
43.217773	88.881836	50.270222
47.294922	98.666992	50.318364
47.702637	99.074707	50.360183
50.556641	98.666992	50.397957
50.964355	90.512695	50.433543
55.856934	94.997559	50.469253
53.818359	90.920410	50.507186
58.303223	92.143555	50.548592
55.856934	90.920410	50.594449
56.264648	81.135254	50.644508
59.934082	88.881836	50.699060
56.264648	86.843262	50.758917
59.118652	90.920410	50.823560
53.410645	97.036133	50.891740
53.002930	97.443848	50.960871
55.041504	73.388672	51.029657
50.556641	65.642090	51.097828
60.749512	78.688965	51.166196
72.573242	77.873535	51.241965
68.903809	71.350098	51.332645
57.487793	88.066406	51.435643
53.002930	110.490723	51.542155
56.264648	103.151855	51.647409
55.856934	102.744141	51.751782
61.157227	136.584473	51.857238
56.264648	132.507324	51.965011
53.002930	92.551270	52.072845
51.372070	65.234375	52.177199
56.672363	73.388672	52.277800
57.487793	95.812988	52.377281
51.372070	102.744141	52.475803
48.925781	91.735840	52.569665
43.625488	85.620117	52.654695
55.041504	89.697266	52.730776
59.118652	93.774414	52.803910
52.187500	92.958984	52.877473
50.964355	94.997559	52.948477
54.633789	116.198730	53.015464
59.118652	118.645020	53.081331
57.080078	117.829590	53.148843
62.380371	117.829590	53.219354
56.672363	112.529297	53.293404
53.818359	100.297852	53.368399
42.810059	84.396973	53.438326
47.702637	77.873535	53.498094
48.110352	74.611816	53.547886
53.002930	68.088379	53.590886
53.818359	68.496094	53.630249
52.187500	87.250977	53.667384
60.749512	108.044434	53.703958
57.080078	119.868164	53.743065
55.041504	113.752441	53.784334
56.264648	117.829590	53.825912
55.041504	125.168457	53.867525
51.372070	114.975586	53.907844
50.556641	102.744141	53.944420
43.625488	100.705566	53.974173
44.033203	85.212402	53.993632
48.110352	94.589844	54.002707
55.856934	128.022461	54.006143
53.410645	119.052734	54.008691
45.664062	78.688965	54.009103
43.625488	62.380371	54.002227
44.848633	66.457520	53.985615
47.702637	81.135254	53.960584
47.294922	102.744141	53.929256
48.925781	98.666992	53.892911
43.217773	99.482422	53.851066
48.925781	99.074707	53.802943
54.633789	105.190430	53.751876
54.633789	113.752441	53.702550
48.925781	117.421875	53.654938
53.002930	110.898438	53.607086
48.925781	91.735840	53.558624
48.110352	92.551270	53.508348
52.187500	81.135254	53.455963
48.110352	79.912109	53.402477
52.595215	94.589844	53.348103
55.449219	97.443848	53.294973
49.741211	76.242676	53.244266
45.664062	82.358398	53.192603
47.294922	105.190430	53.136871
51.779785	107.229004	53.078275
59.934082	106.821289	53.021934
47.702637	119.052734	52.970054
48.518066	119.052734	52.918417
43.625488	118.645020	52.862997
48.925781	115.791016	52.803059
51.779785	111.306152	52.741121
48.110352	98.666992	52.679265
40.363770	93.774414	52.614341
38.325195	93.366699	52.540986
33.432617	89.289551	52.455268
36.286621	87.250977	52.355481
36.286621	84.804687	52.242581
39.956055	83.989258	52.118996
40.771484	82.358398	51.987480
48.925781	90.920410	51.852067
48.925781	88.881836	51.717573
48.110352	93.366699	51.586026
48.925781	97.443848	51.457216
58.303223	111.306152	51.333832
55.856934	102.744141	51.220256
55.856934	89.697266	51.117341
48.518066	98.666992	51.022142
49.741211	103.151855	50.930875
54.633789	96.628418	50.843458
42.402344	88.881836	50.759486
37.102051	83.989258	50.672358
37.509766	79.504395	50.576419
44.440918	79.504395	50.472812
45.664062	71.757812	50.366061
47.294922	62.788086	50.259315
48.925781	69.311523	50.154290
56.672363	77.873535	50.054341
55.856934	120.683594	49.963625
60.341797	128.022461	49.884604
65.234375	113.752441	49.820260
62.380371	85.212402	49.772992
60.749512	92.551270	49.741435
58.303223	96.628418	49.722661
56.264648	88.881836	49.713860
55.856934	90.920410	49.712770
58.303223	80.319824	49.718935
49.741211	64.011230	49.730949
48.925781	71.350098	49.744464
51.372070	89.289551	49.757364
53.002930	103.559570	49.771161
53.818359	111.306152	49.787515
53.818359	108.044434	49.807148
50.556641	100.705566	49.829251
42.810059	85.620117	49.849937
50.964355	87.250977	49.866467
56.672363	107.229004	49.882758
59.934082	110.490723	49.904802
53.818359	98.666992	49.933923
54.633789	96.628418	49.967626
50.964355	102.744141	50.003527
60.749512	106.413574	50.042345
61.564941	86.435547	50.088299
55.856934	59.526367	50.142515
47.294922	55.449219	50.199530
45.256348	92.958984	50.252623
42.402344	113.344727	50.297846
47.702637	104.375000	50.334865
55.041504	106.413574	50.367976
53.818359	107.636719	50.402249
60.341797	101.520996	50.440593
60.749512	95.405273	50.485997
55.856934	106.413574	50.538736
45.664062	101.520996	50.593280
47.294922	99.482422	50.643280
50.964355	101.113281	50.688031
55.856934	101.520996	50.731365
56.672363	87.250977	50.777051
61.564941	76.242676	50.827932
55.449219	66.457520	50.884898
53.002930	65.234375	50.945043
57.080078	103.151855	51.006337
58.303223	120.683594	51.070487
49.741211	96.628418	51.136759
41.586914	72.573242	51.198669
46.479492	67.680664	51.251101
53.002930	86.435547	51.296572
55.856934	101.520996	51.340812
55.856934	96.628418	51.387042
60.749512	96.628418	51.437160
69.311523	114.975586	51.495755
71.757812	105.598145	51.568809
57.487793	74.611816	51.655375
46.887207	66.865234	51.745110
41.179199	84.804687	51.826960
51.779785	106.821289	51.898198
51.779785	105.190430	51.963297
44.440918	101.113281	52.023327
43.217773	97.443848	52.074275
47.294922	85.620117	52.115001
48.110352	80.727539	52.147961
46.887207	76.242676	52.174648
49.741211	81.135254	52.195642
51.372070	93.366699	52.212784
56.264648	102.744141	52.229122
47.294922	92.551270	52.245319
48.110352	94.997559	52.258151
46.479492	97.443848	52.265401
48.925781	95.405273	52.267313
51.779785	88.881836	52.265735
53.818359	85.212402	52.263504
46.887207	85.620117	52.260651
36.694336	82.358398	52.251424
38.732910	75.427246	52.229482
43.625488	84.804687	52.195102
49.333496	94.997559	52.153490
50.964355	94.997559	52.109730
49.741211	72.573242	52.065999
55.856934	85.212402	52.023735
63.603516	108.044434	51.987842
64.826660	108.452148	51.964067
54.633789	95.812988	51.951886
49.741211	93.774414	51.944467
48.110352	109.267578	51.935926
53.002930	97.443848	51.925466
55.856934	92.143555	51.916077
60.341797	93.774414	51.911682
50.556641	92.551270	51.912596
38.325195	79.096680	51.911402
38.732910	76.242676	51.899305
45.256348	80.727539	51.875529
50.556641	90.512695	51.845554
52.595215	120.683594	51.814726
50.964355	121.906738	51.785151
57.487793	117.421875	51.758196
62.380371	100.705566	51.738054
64.011230	112.937012	51.729150
62.788086	110.490723	51.732806
63.603516	93.366699	51.748448
59.934082	88.066406	51.774660
48.925781	92.958984	51.806329
51.779785	120.683594	51.837179
57.080078	97.443848	51.867212
55.449219	74.611816	51.899542
44.033203	74.611816	51.931566
47.294922	92.143555	51.957695
44.848633	84.804687	51.976241
46.479492	80.727539	51.987529
47.294922	90.920410	51.992303
49.741211	103.967285	51.992354
47.294922	121.499023	51.988752
51.779785	121.906738	51.982201
52.187500	112.529297	51.974664
55.041504	99.482422	51.968335
49.741211	99.482422	51.963379
49.741211	100.705566	51.957705
52.595215	103.559570	51.950710
45.256348	108.452148	51.942030
41.586914	119.052734	51.927684
41.586914	119.052734	51.904085
39.140625	92.551270	51.870072
44.033203	84.396973	51.826153
49.741211	88.881836	51.776250
57.080078	88.066406	51.726899
53.002930	91.328125	51.682409
49.741211	100.297852	51.641537
47.294922	100.297852	51.600735
43.625488	88.881836	51.556936
44.848633	95.812988	51.508073
47.702637	97.036133	51.454855
53.410645	117.829590	51.400856
50.964355	121.906738	51.349273
49.741211	99.482422	51.299945
55.856934	98.666992	51.253142
53.002930	123.945312	51.210941
46.887207	100.297852	51.171678
42.402344	72.573242	51.130121
38.325195	66.457520	51.081383
39.956055	76.242676	51.022950
44.033203	68.088379	50.956178
47.702637	92.958984	50.885051
47.294922	116.606445	50.812732
56.264648	125.576172	50.742457
60.749512	131.284180	50.679991
63.603516	117.421875	50.630507
59.118652	86.435547	50.594970
56.672363	90.512695	50.570534
57.487793	104.375000	50.554474
55.041504	97.851562	50.545570
54.633789	94.997559	50.542330
47.294922	84.804687	50.541714
40.363770	85.212402	50.537822
38.732910	87.250977	50.524808
43.217773	102.336426	50.501601
39.956055	94.589844	50.469756
42.402344	93.366699	50.429806
44.848633	89.697266	50.383232
49.741211	80.727539	50.333595
51.372070	96.628418	50.284729
57.080078	115.383301	50.240290
55.041504	119.052734	50.203017
55.041504	109.267578	50.173052
59.934082	92.958984	50.150846
56.672363	87.658691	50.137784
55.856934	74.611816	50.132823
53.002930	83.173828	50.133566
51.372070	98.666992	50.137611
55.041504	128.430176	50.144162
57.080078	127.614746	50.155134
55.041504	101.113281	50.171815
53.002930	72.573242	50.192856
51.779785	57.080078	50.216110
49.741211	79.504395	50.239740
53.002930	113.344727	50.263168
55.041504	123.945312	50.288091
50.964355	109.267578	50.315273
53.002930	103.559570	50.343512
50.964355	95.812988	50.372195
53.818359	94.997559	50.401486
53.818359	119.868164	50.432289
51.372070	116.198730	50.464613
48.110352	97.036133	50.496211
49.333496	82.358398	50.525048
50.964355	80.319824	50.551433
56.672363	84.804687	50.578128
63.603516	81.135254	50.610338
59.526367	85.620117	50.651850
55.041504	86.843262	50.700698
53.002930	95.405273	50.752536
53.818359	99.890137	50.805140
53.002930	100.297852	50.858098
53.002930	87.250977	50.911124
55.449219	95.405273	50.964587
50.556641	101.520996	51.018413
47.702637	107.229004	51.069850
48.518066	120.683594	51.116381
63.603516	119.052734	51.161823
56.672363	109.267578	51.212495
50.964355	93.774414	51.266929
49.333496	89.289551	51.319650
48.110352	104.782715	51.368002
50.964355	97.443848	51.411811
51.372070	89.697266	51.452522
48.518066	80.319824	51.490447
47.294922	66.457520	51.523958
53.410645	72.573242	51.553436
61.157227	88.474121	51.583957
55.041504	107.636719	51.619513
61.564941	121.091309	51.660373
57.487793	100.297852	51.707005
49.741211	104.782715	51.756634
55.041504	150.854492	51.805324
53.002930	145.146484	51.853279
53.002930	114.975586	51.900806
53.818359	75.019531	51.947551
50.556641	64.011230	51.993072
51.779785	49.333496	52.036200
61.564941	51.779785	52.079353
66.865234	67.272949	52.129339
59.934082	77.873535	52.189331
59.934082	101.520996	52.256563
59.526367	111.306152	52.328709
59.118652	112.529297	52.405148
60.749512	113.752441	52.485714
59.118652	132.099609	52.570455
59.934082	129.653320	52.658879
58.303223	114.975586	52.750299
58.710937	99.482422	52.843946
56.672363	87.250977	52.938871
55.041504	84.396973	53.033526
55.856934	76.650391	53.126643
52.595215	72.573242	53.217339
48.518066	75.427246	53.303058
53.818359	81.135254	53.382327
61.157227	83.173828	53.458999
59.934082	88.474121	53.538035
50.964355	106.413574	53.618176
46.887207	110.898438	53.693183
41.586914	107.636719	53.757318
40.771484	97.443848	53.806936
47.294922	102.744141	53.842537
48.518066	92.551270	53.868253
55.041504	89.697266	53.888573
54.633789	102.744141	53.907364
55.856934	87.658691	53.926495
52.595215	92.143555	53.945609
60.749512	124.353027	53.965438
69.311523	112.121582	53.991603
58.303223	68.496094	54.027539
51.372070	47.702637	54.067410
47.294922	61.564941	54.103392
53.410645	67.680664	54.133268
56.264648	79.504395	54.160173
51.779785	89.697266	54.186143
53.818359	92.143555	54.210121
55.856934	96.628418	54.232600
59.526367	103.967285	54.256197
60.749512	92.143555	54.283619
57.487793	97.036133	54.315414
57.487793	114.975586	54.349959
61.564941	108.452148	54.387307
59.526367	102.744141	54.428898
55.041504	106.413574	54.473317
48.110352	101.520996	54.515679
44.848633	81.135254	54.550354
38.732910	74.611816	54.572514
47.294922	63.195801	54.580882
53.002930	56.672363	54.580465
54.633789	68.088379	54.577339
52.595215	85.212402	54.573450
48.110352	93.774414	54.567015
43.217773	106.821289	54.553981
52.187500	110.490723	54.533268
49.741211	93.774414	54.508029
55.041504	100.297852	54.480960
46.887207	102.744141	54.452172
43.217773	88.474121	54.417918
40.771484	100.705566	54.373769
46.479492	110.490723	54.319470
53.002930	88.881836	54.259608
53.002930	72.573242	54.199424
45.664062	74.611816	54.138783
39.548340	73.796387	54.072305
43.217773	81.135254	53.996150
45.664062	88.881836	53.911798
51.779785	77.873535	53.823567
56.672363	69.311523	53.736864
57.487793	84.804687	53.656104
64.826660	134.953613	53.584743
65.234375	159.008789	53.526608
63.195801	131.691895	53.482767
53.818359	77.873535	53.449190
45.664062	48.110352	53.417844
41.179199	63.195801	53.380735
44.033203	77.465820	53.334414
48.518066	86.843262	53.280848
50.964355	88.066406	53.224168
53.002930	92.143555	53.167576
55.856934	82.358398	53.113589
59.118652	83.581543	53.065039
55.449219	87.250977	53.023228
57.080078	89.697266	52.987253
61.564941	97.443848	52.957959
52.595215	97.851562	52.935502
51.779785	94.997559	52.915847
51.372070	93.774414	52.895996
65.234375	112.529297	52.879191
66.865234	114.975586	52.872918
60.749512	100.297852	52.879596
55.041504	87.250977	52.894348
50.964355	74.611816	52.911116
55.856934	76.650391	52.927435
57.487793	76.242676	52.945236
58.710937	71.757812	52.966896
59.526367	73.388672	52.993503
57.487793	72.980957	53.025019
55.041504	78.688965	53.059689
54.633789	87.250977	53.095407
53.002930	93.774414	53.130800
59.934082	104.375000	53.166705
67.680664	121.091309	53.208308
65.642090	107.229004	53.260662
63.195801	89.697266	53.323546
58.303223	86.435547	53.393312
54.633789	82.358398	53.465397
60.749512	72.573242	53.538013
60.749512	64.011230	53.613310
49.741211	53.410645	53.689801
49.741211	50.556641	53.761570
57.487793	98.666992	53.827896
61.564941	115.791016	53.894099
53.410645	84.804687	53.962149
47.702637	62.788086	54.027178
42.810059	77.058105	54.082830
48.518066	91.735840	54.126899
56.672363	111.713867	54.163721
59.118652	130.876465	54.200010
57.487793	104.375000	54.238753
55.041504	85.620117	54.278939
56.672363	96.628418	54.319177
66.865234	101.520996	54.362314
59.934082	99.890137	54.412134
59.118652	101.520996	54.467106
49.741211	93.774414	54.522226
48.110352	85.620117	54.571859
50.964355	93.774414	54.613632
54.633789	87.658691	54.649891
56.672363	92.551270	54.684062
53.410645	90.512695	54.717382
48.925781	82.358398	54.747497
50.964355	73.388672	54.771844
49.741211	72.573242	54.790231
55.449219	92.551270	54.804300
57.487793	102.744141	54.817444
48.925781	91.328125	54.830015
55.041504	99.074707	54.839668
53.818359	105.190430	54.847167
49.741211	99.890137	54.852496
48.518066	72.165527	54.852963
44.440918	58.303223	54.846002
42.402344	60.341797	54.828959
42.402344	75.427246	54.800166
48.518066	75.427246	54.761258
47.702637	77.058105	54.715732
46.887207	83.173828	54.664900
47.294922	93.774414	54.608520
48.925781	108.452148	54.547331
50.964355	104.375000	54.483115
49.741211	104.375000	54.417255
61.157227	92.551270	54.352787
59.118652	77.873535	54.294855
56.264648	83.173828	54.244402
44.848633	89.289551	54.196109
41.179199	94.997559	54.142218
50.964355	94.997559	54.080682
50.964355	70.534668	54.016090
48.110352	47.294922	53.950468
50.964355	95.812988	53.883183
49.333496	106.413574	53.814701
40.363770	65.642090	53.742687
38.325195	57.487793	53.661698
44.848633	85.620117	53.570513
55.041504	90.920410	53.475260
51.372070	89.289551	53.382327
45.256348	97.443848	53.290851
45.664062	93.366699	53.196791
51.372070	87.250977	53.100470
49.333496	97.036133	53.004663
48.518066	92.551270	52.909662
44.033203	84.396973	52.813387
45.664062	65.642090	52.713855
53.002930	61.157227	52.612925
50.556641	77.058105	52.514408
49.741211	103.151855	52.418726
44.033203	96.628418	52.323282
46.887207	82.358398	52.225701
46.479492	75.834961	52.126075
44.440918	80.319824	52.024602
45.256348	89.697266	51.920508
50.964355	117.829590	51.815414
53.410645	120.275879	51.713332
51.779785	91.328125	51.616587
53.818359	79.504395	51.525362
53.818359	89.697266	51.440144
48.110352	102.744141	51.359787
43.625488	103.967285	51.279979
39.956055	101.113281	51.195958
44.440918	99.890137	51.106076
38.325195	84.804687	51.010479
44.848633	70.942383	50.909205
45.664062	59.118652	50.804653
49.741211	66.457520	50.700293
60.749512	89.697266	50.601476
59.526367	95.405273	50.514586
50.556641	85.212402	50.439067
46.479492	80.319824	50.368380
50.964355	97.851562	50.299058
55.856934	102.744141	50.233684
51.372070	107.229004	50.174718
52.187500	108.452148	50.121074
48.110352	88.066406	50.070747
48.518066	77.058105	50.021818
52.595215	76.650391	49.974491
55.041504	116.198730	49.931633
51.779785	110.898438	49.894588
35.063477	81.542969	49.857667
30.578613	67.680664	49.810088
41.179199	70.534668	49.748419
45.664062	77.873535	49.678935
47.294922	79.504395	49.607631
44.033203	81.135254	49.535842
47.702637	81.542969	49.463346
55.856934	93.774414	49.393462
55.856934	119.460449	49.331395
50.964355	132.507324	49.277711
47.294922	97.443848	49.228554
39.140625	73.388672	49.178415
41.586914	89.697266	49.122785
44.033203	97.851562	49.061757
48.110352	95.812988	48.998639
47.702637	70.534668	48.936270
50.964355	52.187500	48.876395
52.187500	53.002930	48.820892
49.741211	55.041504	48.770477
45.256348	64.826660	48.722831
33.024902	74.611816	48.671666
30.986328	84.396973	48.609057
34.655762	80.319824	48.532267
39.140625	77.465820	48.444591
38.325195	79.096680	48.349718
36.286621	81.542969	48.248290
33.432617	83.173828	48.138676
35.471191	77.873535	48.019861
39.956055	84.804687	47.893887
41.179199	92.551270	47.764424
43.217773	83.989258	47.634122
39.548340	60.749512	47.503584
49.741211	56.264648	47.374245
56.672363	68.088379	47.252396
55.449219	73.796387	47.143825
38.732910	83.989258	47.044831
36.286621	79.912109	46.945337
36.286621	85.212402	46.839795
41.179199	99.482422	46.729231
45.664062	92.551270	46.617739
55.041504	77.873535	46.511582
59.526367	76.650391	46.417913
44.033203	83.581543	46.337015
35.471191	75.427246	46.259182
28.540039	70.942383	46.173969
35.063477	92.958984	46.077623
41.179199	106.413574	45.973962
31.801758	83.581543	45.865891
27.724609	53.002930	45.749331
32.209473	39.956055	45.621362
34.248047	39.548340	45.484457
41.586914	70.534668	45.343342
40.363770	93.774414	45.202424
36.694336	83.173828	45.062166
32.209473	92.143555	44.919256
29.763184	99.074707	44.770003
32.209473	95.812988	44.613029
33.024902	86.435547	44.449707
39.140625	83.989258	44.283174
34.655762	85.620117	44.115999
35.471191	80.319824	43.947851
33.024902	61.564941	43.777558
34.248047	59.118652	43.604648
38.325195	53.818359	43.430491
44.848633	53.002930	43.259505
44.440918	53.002930	43.096115
42.402344	48.925781	42.941114
43.217773	59.526367	42.793320
45.256348	110.898438	42.652990
48.110352	107.229004	42.521969
39.956055	70.534668	42.399866
37.102051	68.496094	42.282119
43.625488	84.396973	42.166729
42.810059	97.036133	42.056173
40.363770	102.744141	41.950989
38.325195	86.843262	41.849012
47.294922	80.319824	41.750844
41.586914	65.642090	41.659095
31.394043	53.818359	41.570249
28.540039	53.818359	41.476665
29.355469	68.088379	41.374691
36.694336	75.427246	41.266423
38.325195	83.989258	41.156758
37.102051	83.989258	41.048337
39.956055	81.135254	40.941753
43.217773	80.319824	40.839070
47.702637	84.804687	40.743861
55.041504	121.499023	40.661028
55.041504	116.198730	40.595131
55.041504	107.636719	40.547399
51.372070	100.297852	40.516097
46.887207	89.289551	40.497405
51.779785	97.443848	40.488738
50.964355	92.958984	40.490828
41.586914	79.096680	40.501580
39.140625	64.011230	40.514805
40.771484	62.788086	40.527058
51.372070	76.242676	40.541370
52.595215	75.834961	40.563949
48.110352	76.242676	40.596648
41.586914	88.066406	40.635225
44.033203	104.375000	40.675410
46.887207	101.520996	40.717409
46.479492	106.413574	40.763132
53.818359	124.760742	40.814824
49.333496	107.229004	40.874731
48.110352	87.250977	40.941668
43.217773	72.165527	41.012141
37.102051	61.157227	41.081416
36.286621	57.080078	41.144764
42.402344	60.749512	41.201957
49.741211	98.666992	41.258141
53.410645	107.229004	41.319729
44.848633	77.873535	41.388017
34.655762	48.110352	41.456419
39.548340	53.818359	41.518539
37.102051	56.264648	41.573845
43.217773	66.457520	41.624196
50.556641	63.603516	41.674261
58.303223	70.942383	41.731497
57.487793	76.242676	41.801304
51.779785	88.474121	41.883145
49.741211	75.019531	41.972640
50.964355	64.826660	42.067099
53.002930	70.942383	42.166841
47.294922	84.804687	42.271415
41.179199	89.289551	42.376421
39.140625	88.474121	42.476482
39.548340	68.496094	42.569147
38.732910	55.041504	42.654117
42.402344	57.080078	42.732294
40.363770	64.011230	42.805083
43.625488	71.350098	42.873401
41.179199	74.611816	42.937914
36.286621	59.526367	42.997013
44.033203	48.110352	43.049703
47.294922	65.642090	43.099861
63.195801	123.945312	43.155474
59.118652	125.576172	43.224376
38.732910	59.934082	43.302573
29.355469	29.763184	43.375317
25.278320	42.810059	43.431426
30.578613	54.633789	43.468381
27.316895	58.303223	43.487868
31.801758	57.080078	43.491515
33.432617	50.556641	43.481965
29.763184	48.925781	43.460895
33.024902	61.564941	43.428208
29.355469	65.234375	43.384250
36.286621	59.118652	43.330328
39.140625	63.603516	43.270377
47.294922	67.272949	43.210196
41.586914	57.080078	43.153392
47.702637	59.118652	43.100623
49.741211	72.573242	43.054009
50.964355	108.044434	43.016319
46.887207	99.074707	42.987297
39.140625	65.642090	42.962724
34.248047	55.041504	42.935997
26.909180	55.041504	42.900711
29.355469	59.934082	42.852790
36.286621	73.796387	42.794037
38.325195	88.066406	42.729823
43.217773	88.066406	42.664641
53.410645	69.311523	42.604386
53.002930	60.341797	42.555431
42.402344	59.118652	42.516995
38.325195	71.350098	42.481893
31.394043	73.388672	42.443265
35.878906	88.474121	42.397776
42.810059	113.752441	42.348141
44.033203	120.275879	42.299742
40.771484	105.190430	42.254178
43.217773	51.372070	42.210621
40.771484	24.870605	42.168811
35.063477	35.063477	42.126570
37.102051	57.080078	42.080857
39.548340	68.496094	42.032091
48.925781	76.650391	41.984745
44.848633	80.727539	41.943304
41.179199	71.350098	41.906900
39.956055	66.457520	41.872024
43.625488	80.319824	41.838001
58.710937	87.250977	41.810396
52.595215	83.173828	41.796231
50.964355	80.319824	41.795233
42.810059	77.873535	41.802202
32.617187	82.358398	41.809378
24.055176	103.559570	41.806998
28.132324	101.520996	41.789394
32.209473	81.135254	41.758237
29.355469	63.195801	41.716638
37.509766	67.680664	41.666827
44.033203	61.564941	41.614477
44.848633	55.856934	41.565541
50.556641	107.636719	41.523557
51.779785	127.614746	41.491790
50.556641	96.628418	41.471629
42.810059	66.865234	41.460215
43.217773	55.856934	41.452878
40.771484	66.865234	41.446978
44.033203	86.843262	41.442135
41.586914	91.735840	41.438735
42.402344	69.311523	41.436501
47.702637	64.011230	41.436562
47.294922	64.418945	41.441704
41.179199	63.195801	41.451265
43.217773	50.556641	41.462248
47.702637	55.041504	41.475221
39.956055	52.595215	41.490937
33.024902	47.702637	41.504541
28.540039	59.118652	41.509262
38.325195	55.041504	41.503890
39.956055	53.410645	41.493280
47.294922	70.942383	41.483034
56.672363	97.851562	41.479895
48.925781	83.581543	41.488363
48.518066	75.019531	41.506191
45.664062	68.496094	41.529936
45.664062	79.504395	41.557698
41.179199	86.435547	41.587340
43.217773	79.912109	41.616922
41.179199	58.710937	41.645776
44.440918	40.363770	41.674224
45.664062	59.934082	41.703754
39.956055	66.865234	41.734287
43.217773	55.856934	41.763924
41.586914	59.118652	41.792461
40.771484	64.011230	41.819702
39.956055	76.242676	41.844608
45.664062	83.989258	41.868115
51.779785	89.697266	41.894652
47.294922	69.311523	41.927588
45.664062	50.556641	41.965422
49.741211	73.388672	42.006927
53.002930	125.576172	42.054464
48.110352	113.752441	42.109209
47.294922	64.826660	42.168850
44.848633	38.732910	42.230746
43.217773	21.608887	42.292803
39.140625	35.878906	42.352377
36.694336	61.564941	42.406304
34.248047	69.719238	42.451787
35.471191	88.066406	42.487552
34.248047	96.628418	42.513681
44.848633	73.388672	42.533048
50.964355	58.303223	42.552791
50.556641	65.642090	42.578765
40.771484	60.749512	42.609482
42.402344	75.427246	42.639874
44.848633	93.774414	42.668853
46.479492	85.212402	42.698596
49.741211	82.358398	42.731391
48.110352	62.380371	42.768782
43.217773	44.033203	42.809233
40.771484	41.179199	42.848924
47.294922	64.011230	42.886990
44.033203	85.620117	42.925391
44.848633	77.058105	42.964288
44.440918	73.388672	43.003081
43.625488	78.688965	43.041520
45.664062	84.396973	43.079580
48.110352	77.058105	43.118738
48.925781	77.058105	43.160938
39.140625	75.834961	43.204499
34.248047	79.504395	43.243102
35.471191	82.358398	43.272109
38.325195	72.165527	43.292034
36.694336	64.418945	43.304659
42.810059	62.788086	43.311802
44.848633	64.011230	43.317022
44.033203	58.303223	43.322865
42.402344	64.418945	43.328976
39.140625	67.680664	43.333408
38.732910	62.788086	43.333983
42.402344	68.496094	43.330768
48.110352	87.658691	43.327259
48.925781	127.207031	43.327650
53.002930	128.430176	43.334762
48.110352	90.920410	43.349354
33.432617	58.303223	43.365718
33.024902	64.418945	43.374651
30.986328	75.019531	43.371876
36.286621	64.011230	43.358140
40.771484	59.118652	43.337382
41.179199	66.865234	43.313798
42.402344	67.272949	43.289253
40.363770	52.187500	43.264032
37.102051	49.333496	43.236586
38.325195	40.363770	43.205115
33.024902	47.294922	43.168229
36.286621	61.157227	43.124605
38.325195	63.603516	43.075452
45.664062	55.856934	43.024927
48.110352	71.350098	42.978179
46.887207	83.989258	42.937979
45.256348	82.766113	42.903643
38.325195	83.989258	42.871942
41.179199	72.980957	42.839471
45.256348	63.603516	42.807048
42.810059	82.766113	42.776954
40.363770	81.135254	42.748258
44.848633	74.611816	42.720179
41.586914	59.118652	42.693573
38.325195	47.294922	42.667010
37.102051	47.294922	42.637623
31.394043	50.964355	42.602574
37.509766	68.496094	42.560442
36.286621	64.418945	42.512984
41.179199	65.234375	42.462740
43.217773	71.757812	42.412675
46.479492	74.611816	42.366046
48.110352	56.264648	42.325424
50.964355	55.856934	42.293042
48.518066	65.642090	42.269846
44.440918	56.672363	42.253839
41.179199	51.779785	42.241069
43.217773	59.118652	42.229155
44.440918	95.812988	42.218605
43.625488	77.873535	42.210332
48.925781	42.810059	42.205528
41.586914	30.986328	42.204683
28.540039	28.947754	42.201727
31.394043	67.680664	42.188728
34.248047	105.190430	42.164975
36.286621	100.297852	42.133765
38.732910	69.311523	42.097933
35.878906	55.449219	42.058796
41.586914	57.487793	42.017188
44.848633	58.710937	41.976371
49.333496	57.487793	41.940743
44.033203	51.779785	41.911927
38.325195	55.041504	41.886539
31.801758	59.118652	41.858344
30.986328	73.796387	41.822360
33.024902	72.165527	41.777370
36.286621	55.041504	41.725543
41.586914	53.002930	41.670885
43.625488	57.080078	41.617759
47.294922	59.118652	41.569579
48.925781	67.680664	41.529062
45.664062	82.358398	41.496868
44.033203	79.504395	41.470939
46.479492	83.581543	41.449950
45.256348	53.002930	41.434232
47.294922	55.041504	41.424099
42.810059	64.418945	41.418880
35.878906	58.710937	41.414718
38.732910	45.256348	41.407497
43.217773	49.741211	41.398222
44.848633	64.011230	41.390529
48.110352	67.680664	41.387247
46.479492	76.242676	41.389893
39.956055	48.518066	41.396481
34.248047	35.471191	41.401472
35.063477	50.964355	41.400433
40.363770	46.479492	41.393962
37.102051	43.217773	41.384452
36.286621	80.319824	41.371515
38.325195	76.650391	41.354572
33.024902	44.848633	41.333285
35.471191	47.294922	41.306268
37.102051	68.496094	41.274130
38.325195	64.826660	41.238957
34.248047	59.934082	41.200924
38.325195	53.818359	41.159450
37.509766	46.887207	41.115593
33.432617	41.586914	41.069077
32.209473	47.702637	41.017395
31.801758	46.887207	40.959014
35.063477	33.432617	40.894620
43.217773	59.526367	40.828303
42.402344	72.165527	40.765145
42.402344	66.865234	40.706783
39.140625	49.333496	40.651991
40.363770	55.856934	40.599271
47.294922	55.856934	40.550193
43.217773	59.934082	40.507534
45.664062	51.372070	40.471369
42.402344	50.556641	40.440800
39.956055	53.002930	40.413891
35.471191	48.110352	40.387185
41.179199	56.672363	40.359202
35.878906	46.479492	40.330456
38.325195	30.986328	40.300370
29.355469	22.424316	40.266573
30.578613	26.501465	40.225521
37.509766	48.518066	40.177691
39.140625	60.341797	40.127833
42.402344	61.564941	40.079626
41.586914	69.311523	40.034973
44.033203	83.989258	39.994830
44.440918	70.534668	39.960215
42.402344	59.934082	39.931233
36.286621	44.848633	39.905090
32.209473	37.509766	39.876865
25.278320	53.818359	39.841113
26.909180	44.440918	39.793929
27.316895	34.655762	39.735022
37.102051	30.986328	39.668200
34.248047	67.680664	39.598389
26.501465	75.427246	39.524834
22.424316	47.294922	39.441892
26.501465	28.540039	39.346969
35.471191	48.110352	39.244135
35.878906	61.564941	39.139748
33.432617	79.504395	39.035914
34.655762	68.903809	38.931862
27.724609	48.110352	38.825890
26.501465	45.664062	38.714554
26.501465	59.118652	38.595752
28.947754	60.749512	38.470268
32.209473	59.118652	38.340678
36.286621	59.934082	38.210732
36.286621	56.264648	38.083582
31.394043	34.655762	37.959020
28.132324	48.110352	37.833633
27.316895	71.350098	37.704377
27.724609	58.303223	37.570384
28.947754	31.394043	37.432331
31.394043	23.647461	37.291941
35.878906	44.033203	37.152250
33.432617	76.242676	37.015731
31.801758	82.766113	36.881846
25.278320	63.195801	36.747406
29.355469	55.856934	36.609791
35.878906	67.272949	36.471432
35.063477	56.264648	36.336792
35.471191	48.110352	36.207237
36.286621	66.865234	36.082886
38.325195	94.589844	35.964705
38.325195	70.942383	35.853824
41.179199	28.947754	35.751314
37.102051	-2.854004	35.657332
34.655762	0.815430	35.569555
27.316895	35.063477	35.483510
20.793457	48.925781	35.392998
19.570313	52.187500	35.292638
25.278320	54.633789	35.182127
33.432617	64.011230	35.066859
38.325195	77.058105	34.954241
37.102051	82.766113	34.848661
33.432617	83.173828	34.749591
28.540039	64.826660	34.653305
34.248047	53.002930	34.557743
35.471191	76.242676	34.465008
39.140625	90.920410	34.378175
35.063477	47.294922	34.298245
29.763184	18.347168	34.222421
29.355469	37.509766	34.146632
27.724609	44.440918	34.068922
30.986328	42.402344	33.989352
29.355469	52.595215	33.908946
30.578613	59.118652	33.828150
39.140625	63.603516	33.749528
43.217773	70.942383	33.678955
44.033203	70.534668	33.620747
43.217773	79.096680	33.575688
44.033203	93.366699	33.543231
43.217773	73.796387	33.522839
36.286621	47.294922	33.511952
35.471191	47.294922	33.506079
38.325195	47.294922	33.503502
31.394043	26.909180	33.503538
31.801758	31.394043	33.503283
37.102051	51.372070	33.502537
36.694336	50.556641	33.504107
41.179199	43.625488	33.510244
43.625488	45.256348	33.523625
41.586914	65.234375	33.545837
41.179199	76.242676	33.575919
50.964355	98.666992	33.615305
