-63.603516	63.603516	-21.063899
-63.195801	64.418945	-21.811216
-60.749512	63.195801	-22.567619
-62.380371	72.573242	-23.330938
-57.487793	70.534668	-24.098985
-55.449219	70.534668	-24.868062
-53.410645	77.873535	-25.634422
-43.625488	81.542969	-26.393207
-24.870605	77.873535	-27.133359
-26.909180	77.058105	-27.843057
-47.294922	72.980957	-28.524434
-55.449219	64.826660	-29.191445
-48.110352	60.749512	-29.851752
-48.110352	56.672363	-30.503251
-55.856934	68.496094	-31.145764
-56.264648	72.573242	-31.783199
-39.140625	77.873535	-32.412869
-23.239746	53.818359	-33.021396
-25.278320	52.595215	-33.596783
-38.325195	59.934082	-34.140248
-48.110352	65.642090	-34.662627
-67.272949	87.658691	-35.177929
-77.465820	120.683594	-35.701248
-75.427246	120.683594	-36.241525
-66.457520	104.375000	-36.796674
-51.372070	100.297852	-37.356226
-41.179199	97.443848	-37.906436
-32.617187	84.804687	-38.435580
-24.870605	73.796387	-38.934848
1.630859	27.724609	-39.391787
33.024902	-18.347168	-39.783630
19.978027	-35.063477	-40.092888
-26.909180	-18.754883	-40.333902
-77.873535	64.826660	-40.550960
-99.890137	113.752441	-40.789794
-95.405273	129.245605	-41.072945
-81.542969	117.421875	-41.397891
-67.680664	96.628418	-41.750295
-52.595215	65.642090	-42.113656
-44.848633	81.542969	-42.473492
-47.702637	92.551270	-42.822304
-53.002930	73.388672	-43.161080
-35.471191	22.832031	-43.488849
-29.355469	-17.531738	-43.796339
-35.878906	0.000000	-44.078042
-51.372070	48.110352	-44.340721
-61.157227	101.520996	-44.597386
-45.664062	111.713867	-44.853181
-32.617187	77.058105	-45.098879
-13.454590	35.878906	-45.318722
17.531738	-29.355469	-45.492015
34.248047	-67.272949	-45.594982
-2.446289	-18.754883	-45.623419
-54.633789	79.504395	-45.609268
-53.002930	175.317383	-45.591103
3.669434	163.085937	-45.567091
31.394043	36.286621	-45.500036
-0.815430	39.548340	-45.370966
-40.363770	110.490723	-45.202856
-42.402344	108.044434	-45.027426
-3.261719	82.358398	-44.846369
-4.484863	114.567871	-44.640425
-52.187500	94.589844	-44.413829
-76.650391	0.000000	-44.199564
-43.625488	-35.063477	-44.014005
-12.639160	-32.209473	-43.836981
-30.986328	39.956055	-43.648158
-33.024902	84.396973	-43.450302
-39.140625	81.135254	-43.251528
-68.088379	83.989258	-43.063439
-87.250977	159.824219	-42.907598
-87.658691	229.951172	-42.800486
-62.380371	176.540527	-42.738615
-42.402344	81.135254	-42.701579
-52.595215	90.920410	-42.673832
-58.303223	134.953613	-42.656590
-75.834961	138.623047	-42.659675
-76.650391	107.636719	-42.693088
-54.633789	57.487793	-42.754671
-41.586914	92.551270	-42.828301
-47.702637	145.146484	-42.902324
-62.380371	117.014160	-42.980286
-57.080078	126.391602	-43.069851
-30.578613	118.645020	-43.164511
-4.892578	52.187500	-43.241870
20.385742	2.446289	-43.275536
22.424316	-28.947754	-43.246888
-3.669434	10.600586	-43.157924
-44.033203	64.418945	-43.035248
-58.303223	78.688965	-42.912324
-67.680664	105.598145	-42.809858
-63.195801	160.639648	-42.734526
-63.195801	184.287109	-42.685286
-58.303223	157.377930	-42.658543
-31.801758	81.135254	-42.643774
11.416016	-48.518066	-42.613891
-1.223145	-77.465820	-42.543263
-43.217773	16.308594	-42.440130
-41.179199	142.700195	-42.330920
-41.179199	200.187988	-42.225984
-69.311523	178.579102	-42.132093
-59.934082	157.377930	-42.061162
-16.308594	147.592773	-42.003229
36.286621	130.876465	-41.918566
24.462891	46.887207	-41.772488
-34.655762	19.162598	-41.575855
-8.154297	33.432617	-41.358370
36.286621	11.008301	-41.111138
7.746582	73.796387	-40.812954
-79.096680	148.000488	-40.492574
-89.289551	150.854492	-40.207140
-67.272949	112.937012	-39.977752
-39.548340	111.306152	-39.785940
-20.793457	95.812988	-39.604926
-32.209473	88.474121	-39.420274
-49.741211	103.559570	-39.238018
-51.779785	115.791016	-39.070988
-56.264648	113.752441	-38.925524
-59.118652	111.306152	-38.804441
-60.341797	92.551270	-38.709762
-64.826660	102.744141	-38.642960
-62.788086	107.229004	-38.604984
-56.264648	89.289551	-38.592961
-41.179199	77.058105	-38.597803
-39.140625	82.358398	-38.608564
-26.501465	68.496094	-38.616613
-13.046875	28.947754	-38.611353
19.978027	23.239746	-38.574328
49.741211	-45.664062	-38.478313
-1.223145	-79.912109	-38.315159
-73.796387	59.934082	-38.126099
-98.666992	193.664551	-37.970557
-60.749512	194.479980	-37.869345
-28.540039	148.408203	-37.798261
-13.454590	116.198730	-37.725168
-6.523437	103.151855	-37.632027
-14.270020	99.074707	-37.514275
-14.677734	95.812988	-37.375507
-23.647461	93.774414	-37.221426
-32.617187	83.173828	-37.060064
-35.471191	71.350098	-36.899740
-28.540039	67.272949	-36.742608
-24.055176	68.496094	-36.584621
-12.231445	67.272949	-36.418700
-7.338867	74.611816	-36.236702
-5.300293	83.989258	-36.033338
-3.261719	88.066406	-35.806895
-2.854004	97.443848	-35.556945
5.300293	84.804687	-35.281923
7.746582	72.980957	-34.978222
0.815430	66.865234	-34.645852
-18.347168	72.980957	-34.294495
-39.956055	83.989258	-33.942945
-40.771484	88.881836	-33.608182
-31.801758	94.589844	-33.293544
-33.024902	101.520996	-32.994274
-37.509766	118.645020	-32.709454
-45.256348	128.430176	-32.443441
-28.132324	118.645020	-32.196412
5.708008	92.143555	-31.951915
33.024902	70.534668	-31.680640
32.617187	68.088379	-31.360951
30.578613	69.311523	-30.988951
38.325195	73.388672	-30.566545
34.248047	80.319824	-30.093997
14.270020	96.220703	-29.579432
-23.647461	108.044434	-29.046821
-53.002930	116.198730	-28.530423
-68.496094	104.375000	-28.059497
-64.826660	101.520996	-27.647366
-64.826660	123.945312	-27.293941
-60.341797	141.477051	-26.994790
-39.956055	152.077637	-26.740057
-8.969727	145.146484	-26.507969
29.355469	106.413574	-26.266042
40.771484	66.865234	-25.983701
35.063477	53.410645	-25.648510
11.008301	59.526367	-25.269533
-17.124023	83.173828	-24.870682
-44.440918	121.906738	-24.481550
-66.457520	144.738770	-24.129631
-46.887207	155.339355	-23.827210
-24.462891	144.331055	-23.561975
-13.046875	137.807617	-23.312596
1.630859	120.683594	-23.062874
30.578613	92.143555	-22.794772
44.033203	68.903809	-22.486807
28.132324	50.556641	-22.130612
2.854004	48.925781	-21.740207
-32.617187	55.041504	-21.344327
-59.526367	73.388672	-20.975983
-72.980957	76.242676	-20.661302
-61.564941	79.096680	-20.409322
-40.771484	83.989258	-20.209541
-30.986328	103.559570	-20.043311
-31.801758	134.545898	-19.898896
-40.363770	154.931641	-19.775567
-58.303223	163.493652	-19.681923
-72.165527	165.124512	-19.632033
-74.611816	152.485352	-19.636605
-65.642090	119.868164	-19.695736
-53.002930	95.405273	-19.799502
-38.325195	82.358398	-19.932918
-26.501465	71.350098	-20.080365
-11.823730	70.534668	-20.227128
-4.892578	73.388672	-20.360445
-5.300293	71.757812	-20.473396
-11.008301	69.311523	-20.566678
-15.900879	79.504395	-20.645476
-21.201172	85.212402	-20.715824
-25.686035	87.658691	-20.783280
-30.986328	91.328125	-20.853046
-22.832031	79.912109	-20.926763
-16.716309	86.435547	-20.999678
-15.085449	101.520996	-21.065966
-17.531738	108.452148	-21.124037
-12.231445	104.375000	-21.173667
-5.708008	102.744141	-21.211330
-4.484863	107.229004	-21.232390
-5.708008	105.190430	-21.235540
-2.446289	100.705566	-21.221053
-8.969727	93.774414	-21.190066
-8.562012	87.250977	-21.145822
-8.969727	81.135254	-21.090574
-6.931152	84.396973	-21.024451
-4.077148	83.989258	-20.946301
-6.931152	77.873535	-20.855467
-14.677734	92.551270	-20.755404
-13.454590	90.920410	-20.651132
-5.708008	91.735840	-20.542309
7.746582	89.697266	-20.421331
18.754883	89.697266	-20.276881
28.947754	80.727539	-20.098177
23.239746	80.319824	-19.880213
2.854004	88.474121	-19.630672
-15.493164	92.551270	-19.368278
-8.969727	97.443848	-19.107169
-5.708008	100.297852	-18.848097
-13.046875	94.997559	-18.589742
-28.947754	90.920410	-18.339519
-33.432617	97.443848	-18.108783
-29.763184	98.666992	-17.902461
-17.531738	106.413574	-17.715702
-6.523437	113.344727	-17.537534
-1.223145	113.752441	-17.357366
-3.261719	103.151855	-17.170337
4.077148	100.297852	-16.974704
11.416016	98.666992	-16.765817
8.969727	94.589844	-16.539353
16.716309	101.520996	-16.293670
24.055176	100.705566	-16.024541
30.578613	88.066406	-15.725708
26.501465	90.920410	-15.394546
17.124023	93.774414	-15.035761
16.308594	98.666992	-14.657192
24.870605	93.774414	-14.260777
35.878906	88.881836	-13.840565
35.063477	79.504395	-13.390257
24.055176	69.311523	-12.912119
5.300293	75.834961	-12.418839
32.209473	15.085449	-11.917298
29.763184	25.686035	-11.399828
41.179199	27.724609	-10.858913
38.325195	28.132324	-10.291578
33.432617	29.763184	-9.699403
28.947754	34.655762	-9.088633
28.132324	39.140625	-8.464608
29.763184	23.647461	-7.829764
32.209473	11.823730	-7.183972
35.471191	-4.484863	-6.525836
34.248047	6.523437	-5.854572
34.655762	22.832031	-5.171159
36.694336	21.608887	-4.476438
36.286621	31.801758	-3.770580
35.063477	35.063477	-3.054830
38.732910	35.878906	-2.330176
36.286621	28.540039	-1.596818
37.102051	34.655762	-0.856028
29.355469	26.909180	-0.111171
28.132324	24.462891	0.632610
35.878906	34.655762	1.373939
33.024902	35.063477	2.115147
35.063477	33.024902	2.856531
36.694336	22.424316	3.598056
36.286621	15.493164	4.340219
33.432617	6.931152	5.081678
37.102051	11.416016	5.821041
37.102051	25.686035	6.558806
34.248047	21.608887	7.294484
32.209473	24.055176	8.025361
29.355469	19.978027	8.748317
34.248047	21.201172	9.462200
34.248047	27.724609	10.168494
37.102051	33.432617	10.868834
34.248047	37.102051	11.563504
36.694336	28.947754	12.251924
35.063477	34.655762	12.933762
35.471191	26.909180	13.608490
41.179199	25.686035	14.277010
43.625488	29.763184	14.942646
43.217773	36.694336	15.607509
45.256348	25.278320	16.271899
43.217773	29.763184	16.935567
40.363770	31.394043	17.596564
37.509766	28.947754	18.251531
32.617187	21.608887	18.896519
27.316895	25.278320	19.526591
28.132324	28.947754	20.137903
35.878906	37.509766	20.731736
35.471191	45.256348	21.312434
33.024902	40.771484	21.881160
31.394043	30.986328	22.436038
25.278320	17.124023	22.974007
24.462891	6.931152	23.491413
30.986328	7.338867	23.988321
34.248047	11.416016	24.469209
37.102051	17.124023	24.938474
29.355469	15.493164	25.396471
29.355469	20.793457	25.839910
26.501465	26.909180	26.266199
23.647461	20.793457	26.673418
23.647461	28.132324	27.059755
25.278320	33.024902	27.425428
30.578613	35.878906	27.773239
29.355469	29.763184	28.106524
26.909180	28.947754	28.425697
27.316895	19.162598	28.729564
29.355469	18.347168	29.018605
34.655762	24.870605	29.295759
38.325195	32.209473	29.565559
30.986328	28.540039	29.829444
27.724609	21.201172	30.083659
28.132324	11.416016	30.324840
32.617187	12.231445	30.553859
39.548340	14.677734	30.775311
48.925781	13.046875	30.996589
48.518066	9.377441	31.224109
44.033203	9.785156	31.458419
39.140625	9.785156	31.695219
37.509766	22.424316	31.929967
35.471191	25.278320	32.159835
25.278320	39.956055	32.380623
22.424316	37.509766	32.585872
23.239746	32.617187	32.772107
28.132324	30.578613	32.940958
34.655762	29.355469	33.097533
34.248047	24.055176	33.246830
39.548340	23.239746	33.391913
38.325195	24.055176	33.535177
40.771484	20.385742	33.677946
41.179199	15.900879	33.821164
34.248047	17.124023	33.963696
35.063477	11.823730	34.102103
38.325195	21.201172	34.235891
39.548340	25.686035	34.367378
41.179199	19.570313	34.498457
40.771484	10.600586	34.630081
39.956055	12.231445	34.762087
40.771484	28.132324	34.893997
39.548340	30.986328	35.025570
34.655762	28.947754	35.154970
38.732910	11.823730	35.280337
49.333496	18.347168	35.405365
60.749512	21.201172	35.539577
64.826660	13.046875	35.692269
66.457520	12.231445	35.868012
55.041504	-0.815430	36.064506
54.633789	-3.669434	36.274929
53.818359	8.154297	36.494999
55.041504	35.471191	36.723836
55.449219	49.741211	36.961336
51.779785	52.187500	37.206430
49.741211	47.702637	37.456159
50.556641	47.294922	37.708229
55.856934	45.256348	37.963557
52.187500	30.986328	38.223759
52.595215	32.209473	38.487915
50.964355	26.501465	38.754388
49.333496	21.201172	39.021616
50.556641	16.308594	39.288320
55.041504	15.493164	39.555635
53.002930	9.785156	39.825396
53.002930	12.231445	40.097315
54.633789	18.754883	40.370901
55.856934	21.608887	40.646969
54.633789	32.617187	40.925867
53.410645	42.810059	41.206531
49.741211	42.810059	41.486658
49.333496	25.686035	41.763621
42.810059	29.763184	42.034382
45.664062	25.686035	42.296152
47.294922	21.608887	42.549277
45.664062	23.239746	42.795062
51.779785	21.201172	43.034760
55.041504	25.686035	43.272035
53.818359	23.647461	43.509746
48.925781	10.600586	43.746554
49.741211	-9.785156	43.979573
47.294922	-8.154297	44.207230
51.779785	7.338867	44.429636
53.410645	16.716309	44.648938
53.002930	31.394043	44.866973
45.664062	26.501465	45.081857
45.664062	24.055176	45.289542
41.586914	22.424316	45.487139
38.325195	33.432617	45.671899
41.586914	28.132324	45.842280
42.810059	20.385742	45.999934
42.402344	29.355469	46.146663
42.402344	29.355469	46.282917
39.956055	32.209473	46.408276
45.256348	29.763184	46.523210
44.440918	21.608887	46.629998
41.586914	18.347168	46.729112
41.179199	19.570313	46.818974
44.033203	28.540039	46.899694
44.848633	23.239746	46.973210
48.925781	18.347168	47.042018
44.848633	23.239746	47.107546
44.033203	38.325195	47.168588
41.586914	39.548340	47.223140
39.140625	44.440918	47.269299
34.248047	41.179199	47.304182
36.694336	32.209473	47.325693
35.471191	38.732910	47.334095
38.325195	26.909180	47.330722
36.286621	19.978027	47.316755
34.655762	11.416016	47.291937
33.024902	6.523437	47.254966
31.801758	7.746582	47.204826
39.140625	20.793457	47.143021
40.363770	30.986328	47.074003
42.402344	25.686035	47.001275
39.956055	31.394043	46.925832
40.771484	28.947754	46.847341
31.394043	33.024902	46.763346
35.471191	39.548340	46.670541
41.179199	47.294922	46.570602
34.655762	43.217773	46.466314
35.471191	38.732910	46.356269
39.548340	36.694336	46.240631
35.471191	27.316895	46.121058
39.140625	30.986328	45.997748
41.586914	35.063477	45.872499
42.402344	31.801758	45.747994
46.887207	26.909180	45.626580
39.956055	24.870605	45.508993
37.102051	18.754883	45.391971
33.024902	19.570313	45.271219
24.462891	25.686035	45.141893
19.978027	33.024902	44.997770
24.055176	23.647461	44.836137
24.462891	23.239746	44.659029
28.132324	31.801758	44.469582
35.471191	40.363770	44.272517
35.471191	35.878906	44.073205
39.548340	40.363770	43.874958
34.248047	34.655762	43.678685
32.209473	28.132324	43.482253
33.432617	21.608887	43.283734
30.578613	10.600586	43.082788
35.063477	11.416016	42.879738
43.217773	18.347168	42.678639
40.363770	16.308594	42.484327
34.655762	15.493164	42.295843
29.763184	19.162598	42.108086
33.024902	23.647461	41.918007
27.724609	31.801758	41.724948
24.462891	30.986328	41.526462
26.501465	37.509766	41.320433
33.432617	31.801758	41.109453
33.432617	26.909180	40.898147
35.063477	34.655762	40.689000
32.209473	29.763184	40.482241
26.909180	26.501465	40.275516
25.278320	16.716309	40.065078
35.063477	18.347168	39.851637
35.471191	12.639160	39.640373
33.024902	15.493164	39.433552
25.686035	17.531738	39.228084
28.540039	13.046875	39.020374
29.355469	19.162598	38.810529
34.655762	39.548340	38.601435
30.578613	41.179199	38.395208
25.686035	26.501465	38.189898
21.201172	18.347168	37.980859
25.686035	11.416016	37.766018
29.355469	11.008301	37.548005
27.316895	21.608887	37.329764
31.394043	19.162598	37.112497
27.316895	16.716309	36.896924
30.986328	14.677734	36.683089
28.132324	12.231445	36.471244
25.278320	10.600586	36.260236
25.686035	5.300293	36.048107
32.209473	7.338867	35.836309
30.578613	10.600586	35.628156
31.394043	11.008301	35.424772
33.024902	13.454590	35.226582
39.140625	16.716309	35.036238
36.286621	19.570313	34.856476
43.217773	31.394043	34.688933
43.217773	39.548340	34.536122
43.625488	44.848633	34.399466
36.286621	37.102051	34.276661
32.209473	20.385742	34.162390
31.394043	15.493164	34.052101
29.355469	19.162598	33.943696
37.509766	18.754883	33.838060
39.956055	8.154297	33.739569
40.363770	4.484863	33.651537
44.033203	11.416016	33.575404
44.440918	7.746582	33.512853
42.402344	4.892578	33.463977
40.363770	-3.261719	33.426707
41.179199	1.223145	33.399165
42.402344	13.046875	33.381153
39.956055	31.801758	33.372472
35.471191	31.801758	33.370567
29.355469	27.724609	33.370527
31.394043	20.385742	33.368412
26.909180	20.385742	33.362604
30.986328	14.677734	33.352528
32.209473	21.201172	33.339673
34.655762	16.308594	33.326534
29.763184	3.669434	33.313459
36.286621	8.154297	33.300245
39.956055	20.385742	33.290018
39.140625	27.724609	33.286080
37.509766	34.248047	33.288259
35.063477	27.724609	33.294560
34.248047	19.978027	33.302863
36.694336	17.124023	33.312640
38.325195	27.316895	33.325312
32.617187	19.162598	33.340737
29.355469	15.900879	33.355344
22.424316	24.870605	33.364123
21.201172	18.347168	33.362509
23.647461	24.055176	33.349153
27.724609	33.432617	33.326637
35.471191	44.440918	33.300218
32.209473	31.801758	33.274386
31.394043	13.046875	33.249248
26.909180	3.669434	33.222336
23.647461	-4.077148	33.190332
25.278320	2.854004	33.151035
29.355469	15.085449	33.105890
28.132324	21.201172	33.057457
22.424316	31.394043	33.004865
24.870605	31.801758	32.945682
24.462891	30.986328	32.879945
19.570313	26.501465	32.807165
20.385742	28.947754	32.725273
26.501465	24.055176	32.635519
25.686035	13.454590	32.541566
20.793457	13.454590	32.443596
19.570313	8.969727	32.338787
20.385742	7.746582	32.225847
26.501465	1.630859	32.106976
30.578613	13.046875	31.987066
28.540039	12.231445	31.869503
29.355469	23.239746	31.754519
24.462891	26.909180	31.640724
26.501465	29.763184	31.526365
24.870605	36.286621	31.410944
17.531738	41.179199	31.292381
14.270020	34.248047	31.165803
13.454590	26.909180	31.027850
20.385742	20.385742	30.879718
24.055176	23.239746	30.726415
25.278320	16.308594	30.572406
24.870605	11.416016	30.419385
25.278320	14.677734	30.267681
26.501465	22.424316	30.117824
25.278320	19.162598	29.970314
23.239746	14.677734	29.824345
23.647461	11.008301	29.678713
28.132324	15.900879	29.534415
24.055176	20.385742	29.392932
25.278320	13.046875	29.253645
23.647461	19.162598	29.115742
23.647461	32.617187	28.978771
22.424316	27.316895	28.842084
26.501465	19.162598	28.706239
31.394043	20.793457	28.574447
32.617187	15.493164	28.450626
37.102051	22.424316	28.337650
36.694336	19.978027	28.237718
33.024902	17.124023	28.150343
23.647461	11.416016	28.070551
28.540039	11.416016	27.993474
36.286621	27.724609	27.921215
38.732910	28.132324	27.859627
32.209473	35.063477	27.809899
28.132324	38.325195	27.767690
27.316895	30.986328	27.728634
26.909180	30.986328	27.691022
32.209473	38.732910	27.655792
33.432617	35.471191	27.625872
33.432617	26.501465	27.603088
39.140625	28.947754	27.588962
40.363770	24.055176	27.586435
38.325195	25.686035	27.596592
39.548340	24.055176	27.618418
32.209473	23.239746	27.649542
32.617187	19.162598	27.686082
29.355469	14.677734	27.725183
33.024902	20.793457	27.766047
34.248047	20.793457	27.809942
34.248047	23.239746	27.858291
31.801758	27.316895	27.910521
29.763184	28.947754	27.964580
28.132324	27.316895	28.018186
21.608887	32.617187	28.068198
27.724609	30.986328	28.112477
31.394043	34.655762	28.153699
37.102051	41.586914	28.196994
25.278320	46.887207	28.243078
22.424316	48.110352	28.286315
25.686035	45.664062	28.323040
24.055176	29.763184	28.354045
27.316895	3.669434	28.380413
28.540039	-4.892578	28.403933
31.394043	-0.407715	28.426958
33.024902	2.854004	28.451737
33.024902	10.600586	28.479770
24.462891	19.162598	28.509059
20.385742	23.239746	28.533948
16.716309	27.316895	28.549254
12.639160	29.355469	28.551326
9.377441	28.947754	28.536798
5.300293	25.278320	28.502583
4.484863	28.540039	28.446395
8.562012	26.909180	28.368861
11.823730	26.909180	28.273813
18.754883	19.570313	28.166752
25.686035	7.746582	28.054653
27.724609	1.630859	27.943859
26.909180	8.562012	27.837105
25.278320	14.677734	27.734000
18.754883	16.308594	27.631701
17.531738	23.239746	27.526103
35.063477	21.201172	27.419715
41.586914	16.716309	27.323288
44.033203	16.308594	27.245146
44.848633	28.947754	27.187758
40.363770	48.110352	27.150134
33.432617	48.925781	27.127458
32.617187	48.925781	27.114040
34.248047	36.694336	27.107656
32.617187	35.878906	27.108207
37.102051	35.063477	27.116128
36.286621	31.801758	27.132790
34.248047	15.900879	27.157995
34.655762	20.385742	27.190150
42.810059	12.639160	27.230727
47.294922	5.300293	27.284872
55.449219	11.008301	27.358552
58.303223	18.347168	27.457019
59.934082	29.763184	27.583113
63.195801	32.617187	27.737915
69.311523	39.548340	27.923710
71.757812	43.217773	28.143610
72.573242	43.625488	28.398945
77.058105	50.964355	28.690090
81.135254	39.548340	29.018758
85.212402	25.686035	29.387294
89.697266	21.201172	29.797896
93.774414	24.870605	30.252724
97.851562	21.201172	30.753688
101.113281	21.608887	31.302241
103.559570	25.686035	31.899077
102.336426	28.947754	32.543201
108.044434	35.878906	33.233294
103.559570	31.801758	33.968046
102.336426	24.462891	34.743485
99.890137	26.501465	35.554487
100.705566	36.694336	36.397198
103.967285	36.286621	37.269937
105.598145	27.724609	38.172783
105.598145	28.947754	39.105137
104.782715	24.055176	40.064896
103.967285	12.231445	41.049166
95.405273	8.562012	42.052913
93.366699	8.562012	43.068949
97.036133	12.231445	44.093295
99.074707	13.454590	45.126426
110.898438	19.978027	46.171998
101.520996	15.493164	47.232634
97.851562	28.132324	48.303751
92.143555	33.024902	49.377859
93.366699	29.355469	50.450052
88.066406	24.870605	51.517041
84.396973	31.394043	52.574513
81.135254	19.162598	53.617612
74.611816	14.270020	54.641502
76.650391	14.677734	55.642228
75.427246	9.377441	56.618825
74.611816	8.154297	57.571039
69.311523	7.746582	58.496832
70.942383	3.669434	59.393858
66.457520	-4.892578	60.260765
66.865234	-2.446289	61.096185
65.642090	0.000000	61.899383
64.011230	-1.630859	62.670010
59.934082	4.077148	63.406484
56.264648	7.746582	64.106044
49.333496	10.600586	64.764808
40.771484	12.639160	65.377078
36.286621	18.347168	65.936820
31.394043	13.046875	66.439936
26.501465	13.046875	66.883429
16.308594	18.347168	67.263002
12.639160	14.677734	67.573549
9.377441	8.154297	67.812408
6.931152	18.347168	67.979256
1.630859	19.162598	68.073648
-4.892578	7.746582	68.093627
-11.008301	14.270020	68.036117
-23.647461	1.630859	67.896443
-29.355469	-19.570313	67.668728
-33.840332	-21.201172	67.349705
-38.325195	-14.270020	66.938813
-45.256348	-3.669434	66.435290
-56.264648	2.854004	65.836153
-66.457520	6.523437	65.136081
-71.757812	-4.892578	64.330745
-83.173828	-7.746582	63.417299
-87.658691	-8.969727	62.393035
-95.405273	-13.046875	61.256660
-99.074707	-15.493164	60.008237
-103.151855	-19.570313	58.649120
-105.190430	-24.870605	57.182112
-109.267578	-31.801758	55.610431
-112.121582	-33.024902	53.937045
-121.091309	-18.754883	52.163392
-129.245605	-25.278320	50.288277
-138.623047	-23.239746	48.309163
-145.961914	-15.085449	46.223846
-152.485352	-15.900879	44.031297
-164.309082	-18.754883	41.730218
-165.124512	-18.347168	39.319805
-173.278809	-7.746582	36.801868
-174.501953	-4.892578	34.179107
-176.948242	-4.077148	31.455599
-182.656250	-13.454590	28.635666
-189.995117	-20.793457	25.721070
-196.926270	-19.162598	22.711989
-199.780273	-23.239746	19.609546
-207.934570	-32.209473	16.415769
-206.711426	-28.947754	13.133441
-212.011719	-26.501465	9.767131
-212.011719	-25.278320	6.321719
-218.942871	-27.724609	2.801197
-225.466309	-24.055176	-0.792689
-235.251465	-15.085449	-4.460655
-239.736328	-0.815430	-8.203523
-244.221191	-2.854004	-12.020072
-247.075195	-14.270020	-15.907237
-249.929199	-16.308594	-19.861159
-254.006348	-20.385742	-23.877981
-257.268066	-30.986328	-27.954379
-271.945801	-38.325195	-32.090011
-271.130371	-28.540039	-36.286201
-273.576660	-28.132324	-40.539865
-277.653809	-38.732910	-44.846073
-278.876953	-44.033203	-49.201024
-285.400391	-34.655762	-53.601361
-281.323242	-27.316895	-58.043080
-288.662109	-28.132324	-62.521140
-293.554688	-33.432617	-67.033257
-302.116699	-39.548340	-71.579896
-309.455566	-37.509766	-76.162425
-306.193848	-35.063477	-80.779651
-313.125000	-37.509766	-85.427185
-312.717285	-36.286621	-90.101448
-312.717285	-33.432617	-94.797924
-316.386719	-40.363770	-99.511528
-316.794434	-36.286621	-104.238567
-317.609863	-39.956055	-108.974856
-320.056152	-39.956055	-113.716178
-323.725586	-51.372070	-118.459787
-320.463867	-57.080078	-123.202307
-319.240723	-51.372070	-127.937735
-320.056152	-49.333496	-132.660131
-318.833008	-44.033203	-137.364908
-324.133301	-44.848633	-142.048885
-322.910156	-44.033203	-146.710226
-323.317871	-40.363770	-151.345915
-321.687012	-33.840332	-155.951708
-325.764160	-29.355469	-160.524442
-328.618164	-32.617187	-165.063272
-334.733887	-35.063477	-169.569143
-329.433594	-39.140625	-174.041384
-333.918457	-44.440918	-178.476821
-332.695312	-40.771484	-182.873103
-333.103027	-42.402344	-187.228026
-329.025879	-52.187500	-191.537713
-327.802734	-51.372070	-195.797327
-329.433594	-44.440918	-200.003376
-327.802734	-43.217773	-204.153976
-325.356445	-36.694336	-208.246206
-327.802734	-24.055176	-212.277341
-323.725586	-23.239746	-216.245485
-326.987305	-24.462891	-220.148680
-324.948730	-16.716309	-223.985876
-333.103027	-18.754883	-227.757958
-330.656738	-27.316895	-231.467019
-327.395020	-28.540039	-235.112019
-324.948730	-27.316895	-238.689031
-327.802734	-29.763184	-242.195984
-329.025879	-30.986328	-245.633548
-328.618164	-38.325195	-249.002539
-328.210449	-39.140625	-252.302524
-331.064453	-38.325195	-255.533592
-329.433594	-35.878906	-258.696434
-326.987305	-31.801758	-261.790068
-324.541016	-29.355469	-264.812025
-328.618164	-29.763184	-267.761519
-328.618164	-33.840332	-270.640235
-325.764160	-28.540039	-273.448676
-320.056152	-16.308594	-276.184077
-315.979004	-11.416016	-278.842053
-319.648437	-24.462891	-281.420643
-321.687012	-24.870605	-283.922127
-327.395020	-30.578613	-286.350905
-321.687012	-31.801758	-288.709754
-319.648437	-35.063477	-290.997329
-317.609863	-32.617187	-293.211351
-322.910156	-39.140625	-295.352612
-319.240723	-37.102051	-297.423444
-313.125000	-24.055176	-299.422721
-307.009277	-24.870605	-301.345801
-299.262695	-26.909180	-303.187261
-302.116699	-34.655762	-304.943938
-308.232422	-33.840332	-306.618900
-313.125000	-21.201172	-308.219337
-310.678711	-11.008301	-309.750478
-311.901855	-13.454590	-311.214178
-312.309570	-15.900879	-312.612060
-306.193848	-13.454590	-313.944567
-304.155273	-19.570313	-315.209619
-304.155273	-24.055176	-316.406268
-300.893555	-25.278320	-317.534963
-300.078125	-31.801758	-318.595668
-300.893555	-33.840332	-319.589280
-299.670410	-31.801758	-320.517688
-296.816406	-35.063477	-321.381692
-295.185547	-39.956055	-322.181054
-291.516113	-24.462891	-322.915292
-293.146973	-16.308594	-323.584660
-288.662109	-9.785156	-324.190106
-291.516113	-15.085449	-324.732714
-287.031250	-11.008301	-325.213904
-287.438965	-3.261719	-325.634455
-289.477539	-11.823730	-325.996242
-290.700684	-15.493164	-326.303050
-285.808105	-25.278320	-326.556939
-285.400391	-25.278320	-326.757685
-281.323242	-19.570313	-326.904913
-275.615234	-21.608887	-326.997147
-280.507812	-29.355469	-327.033996
-275.615234	-31.394043	-327.017718
-277.653809	-22.424316	-326.949986
-275.615234	-22.424316	-326.832455
-271.538086	-22.424316	-326.665897
-268.684082	-18.754883	-326.449282
-271.945801	-15.900879	-326.183392
-271.945801	-17.531738	-325.871704
-269.907227	-15.900879	-325.516941
-271.130371	-19.162598	-325.120678
-266.645508	-19.162598	-324.684141
-260.937500	-12.639160	-324.206081
-261.752930	-15.900879	-323.684916
-260.937500	-20.385742	-323.121865
-260.937500	-26.909180	-322.519200
-261.752930	-26.909180	-321.879352
-260.122070	-27.316895	-321.204678
-256.044922	-19.570313	-320.495750
-251.967773	-18.754883	-319.751224
-251.152344	-11.823730	-318.970068
-245.036621	-0.407715	-318.151658
-243.405762	-1.223145	-317.294685
-245.036621	-8.969727	-316.399763
-250.744629	-5.708008	-315.471479
-249.929199	0.000000	-314.515534
-247.075195	0.407715	-313.534506
-249.113770	-4.892578	-312.529385
-248.298340	-3.261719	-311.502426
-245.852051	-0.815430	-310.455162
-242.590332	-8.969727	-309.387258
-239.328613	-14.677734	-308.297557
-238.920898	-19.162598	-307.185515
-239.736328	-21.608887	-306.052456
-238.105469	-18.754883	-304.900416
-237.697754	-18.754883	-303.730715
-232.397461	-15.493164	-302.543349
-225.466309	-4.077148	-301.335652
-224.243164	0.000000	-300.104459
-223.835449	-6.931152	-298.849560
-227.504883	-6.523437	-297.573774
-224.243164	-0.815430	-296.280354
-227.912598	0.407715	-294.971670
-224.650879	1.630859	-293.650005
-223.427734	3.669434	-292.316264
-216.904297	-6.523437	-290.969182
-216.496582	-11.823730	-289.606924
-216.496582	-8.969727	-288.229682
-214.865723	-13.454590	-286.839046
-212.419434	-11.823730	-285.435584
-208.750000	-1.223145	-284.018675
-211.604004	-0.407715	-282.588596
-205.080566	-16.716309	-281.146270
-201.003418	-15.493164	-279.690016
-201.818848	-3.669434	-278.218356
-203.449707	0.815430	-276.733320
-205.488281	1.223145	-275.238681
-204.672852	5.300293	-273.737729
-205.488281	1.630859	-272.232649
-207.119141	-8.969727	-270.725853
-198.964844	-8.969727	-269.217929
-196.926270	-11.416016	-267.706124
-192.441406	-9.785156	-266.187809
-196.926270	-4.077148	-264.663162
-191.218262	-0.815430	-263.133750
-191.218262	-9.377441	-261.599575
-185.917969	-11.823730	-260.059574
-189.587402	-16.308594	-258.513808
-186.733398	-21.608887	-256.963948
-192.849121	-15.493164	-255.412880
-189.995117	-13.046875	-253.864001
-191.218262	-5.708008	-252.319268
-192.441406	-3.261719	-250.780331
-191.218262	4.484863	-249.249187
-187.141113	5.300293	-247.725698
-181.025391	4.892578	-246.207050
-185.917969	1.630859	-244.691619
-187.956543	-6.523437	-243.182352
-191.218262	-7.338867	-241.683768
-185.917969	-7.338867	-240.197815
-183.471680	-11.416016	-238.722911
-176.132812	-11.008301	-237.255500
-175.725098	-11.008301	-235.792179
-177.355957	-18.754883	-234.332586
-171.647949	-19.570313	-232.877336
-165.124512	-3.669434	-231.423479
-167.978516	-5.300293	-229.968300
-170.832520	-5.708008	-228.513925
-168.386230	8.562012	-227.063453
-163.493652	19.162598	-225.616409
-162.678223	10.600586	-224.170731
-164.309082	9.377441	-222.726591
-166.755371	11.008301	-221.286723
-169.609375	-0.815430	-219.854909
-163.901367	-3.261719	-218.432931
-165.532227	-3.261719	-217.020017
-161.455078	-4.077148	-215.615527
-161.455078	-13.454590	-214.218841
-156.562500	-14.677734	-212.828718
-150.854492	-8.969727	-211.442250
-152.485352	-7.338867	-210.056874
-148.408203	-6.931152	-208.672281
-148.815918	-0.407715	-207.288285
-151.669922	-1.223145	-205.906205
-148.000488	4.484863	-204.528050
-147.592773	12.639160	-203.153805
-144.738770	9.785156	-201.782809
-149.631348	9.377441	-200.416034
-151.669922	5.300293	-199.057080
-147.592773	1.630859	-197.708307
-145.554199	-2.446289	-196.368528
-141.477051	0.815430	-195.035532
-137.807617	-1.223145	-193.706768
-139.846191	-6.931152	-192.380979
-139.438477	-6.523437	-191.059423
-134.545898	-8.154297	-189.742333
-132.507324	0.000000	-188.427677
-128.430176	6.931152	-187.113299
-134.545898	11.008301	-185.799496
-132.099609	3.669434	-184.489123
-129.245605	4.484863	-183.182972
-125.576172	15.493164	-181.879119
-123.537598	19.978027	-180.575617
-124.353027	17.124023	-179.271997
-125.168457	13.454590	-177.969744
-129.245605	0.000000	-176.671876
-129.245605	-7.746582	-175.381915
-126.799316	-6.523437	-174.101287
-127.207031	-0.815430	-172.829736
-129.245605	-1.223145	-171.568294
-124.353027	0.815430	-170.317721
-120.275879	6.931152	-169.075733
-117.014160	5.708008	-167.838962
-112.529297	12.639160	-166.604508
-115.791016	13.046875	-165.371207
-116.198730	15.900879	-164.140945
-114.567871	19.162598	-162.915520
-114.567871	18.347168	-161.695251
-112.121582	19.978027	-160.480115
-116.198730	17.531738	-159.270942
-119.052734	20.385742	-158.070982
-119.460449	15.900879	-156.883756
-117.014160	14.677734	-155.710254
-117.829590	12.231445	-154.550126
-112.529297	3.669434	-153.402376
-114.567871	-2.446289	-152.265616
-112.529297	5.708008	-151.139684
-109.267578	11.416016	-150.023882
-108.044434	11.823730	-148.916351
-106.821289	19.162598	-147.816061
-106.413574	15.900879	-146.722768
-106.413574	13.046875	-145.636768
-111.306152	18.347168	-144.560050
-109.267578	23.647461	-143.495360
-108.859863	23.647461	-142.443378
-103.559570	26.501465	-141.402493
-97.036133	24.055176	-140.368689
-94.589844	11.008301	-139.337270
-97.851562	-1.223145	-138.307070
-101.113281	2.446289	-137.281043
-100.705566	14.677734	-136.262541
-101.520996	9.377441	-135.253152
-97.443848	6.931152	-134.252773
-93.366699	2.854004	-133.259047
-98.666992	8.969727	-132.270897
-96.628418	12.231445	-131.290287
-98.666992	12.231445	-130.318762
-92.143555	12.231445	-129.355753
-95.812988	11.823730	-128.399959
-94.589844	19.162598	-127.451949
-92.551270	22.832031	-126.512153
-92.143555	12.639160	-125.579686
-93.366699	14.677734	-124.654768
-94.589844	10.600586	-123.738886
-96.628418	4.484863	-122.834092
-90.920410	-0.815430	-121.940727
-89.697266	-4.077148	-121.056426
-88.066406	-16.716309	-120.179139
-92.958984	-9.377441	-119.309577
-86.843262	0.407715	-118.448838
-90.920410	4.077148	-117.596570
-89.289551	4.077148	-116.753392
-87.250977	-2.446289	-115.919457
-88.066406	5.708008	-115.093936
-83.581543	22.424316	-114.276032
-83.173828	25.686035	-113.464009
-81.542969	18.754883	-112.656633
-82.766113	11.823730	-111.853899
-86.435547	12.231445	-111.057618
-89.289551	5.708008	-110.271334
-87.658691	1.223145	-109.497455
-82.766113	9.377441	-108.734839
-79.096680	8.969727	-107.979815
-79.096680	5.300293	-107.229618
-79.912109	11.416016	-106.484070
-81.135254	15.493164	-105.744491
-73.796387	0.000000	-105.010319
-72.165527	0.000000	-104.278115
-70.534668	8.154297	-103.545348
-75.427246	16.716309	-102.812814
-77.873535	26.909180	-102.084055
-76.242676	30.986328	-101.361808
-72.165527	27.724609	-100.645253
-75.427246	25.686035	-99.933170
-77.465820	26.909180	-99.227284
-75.019531	21.201172	-98.529339
-74.611816	15.493164	-97.838854
-72.980957	17.124023	-97.154930
-70.942383	12.231445	-96.476489
-62.380371	5.708008	-95.800248
-64.011230	4.484863	-95.122211
-63.195801	9.377441	-94.441565
-63.195801	7.338867	-93.759145
-64.011230	19.162598	-93.075748
-59.526367	17.531738	-92.391386
-55.856934	18.754883	-91.703717
-59.118652	31.801758	-91.011362
-61.564941	39.548340	-90.316656
-62.380371	30.986328	-89.622790
-63.603516	27.724609	-88.931847
-66.865234	35.471191	-88.246136
-64.418945	32.209473	-87.567531
-62.788086	26.501465	-86.895567
-57.487793	24.055176	-86.227758
-57.080078	18.347168	-85.561296
-59.118652	6.523437	-84.895750
-59.118652	0.815430	-84.232741
-59.526367	14.677734	-83.573494
-54.633789	18.347168	-82.917461
-52.595215	26.909180	-82.262185
-48.925781	35.063477	-81.605001
-49.333496	40.771484	-80.944330
-50.556641	42.402344	-80.280596
-51.372070	38.732910	-79.615598
-48.518066	25.686035	-78.950093
-47.294922	22.832031	-78.283196
-42.810059	20.793457	-77.613101
-46.479492	16.716309	-76.938943
-41.586914	18.754883	-76.261079
-49.333496	28.540039	-75.580818
-47.294922	17.124023	-74.901233
-43.217773	0.815430	-74.222899
-43.217773	9.377441	-73.543795
-41.179199	18.347168	-72.863063
-37.509766	23.647461	-72.179458
-38.732910	25.686035	-71.491685
-37.509766	26.909180	-70.800014
-37.102051	19.978027	-70.104919
-32.617187	21.201172	-69.405573
-30.578613	25.278320	-68.699904
-28.947754	23.239746	-67.986263
-32.209473	27.724609	-67.265225
-32.209473	24.055176	-66.539168
-35.471191	18.754883	-65.810796
-32.617187	11.823730	-65.081943
-33.432617	10.600586	-64.352969
-30.986328	10.600586	-63.623682
-32.617187	13.454590	-62.894218
-28.540039	14.677734	-62.164496
-20.793457	23.239746	-61.431545
-26.909180	23.239746	-60.692748
-23.647461	35.063477	-59.949467
-24.870605	34.655762	-59.202901
-20.793457	30.986328	-58.452697
-23.239746	29.763184	-57.698631
-26.909180	27.724609	-56.942848
-29.355469	25.278320	-56.189434
-36.694336	24.055176	-55.443248
-28.540039	28.947754	-54.707105
-26.909180	27.316895	-53.978538
-24.462891	21.608887	-53.254327
-23.647461	14.270020	-52.533109
-15.900879	5.300293	-51.812400
-19.570313	5.300293	-51.089613
-23.647461	13.046875	-50.366567
-16.716309	18.347168	-49.645318
-15.085449	17.531738	-48.923543
-11.416016	25.278320	-48.198384
-16.716309	24.870605	-47.469791
-15.085449	19.162598	-46.740079
-19.570313	15.493164	-46.011778
-16.716309	15.493164	-45.286768
-21.608887	20.385742	-44.566625
-18.754883	27.316895	-43.852957
-21.608887	28.947754	-43.146756
-21.201172	14.677734	-42.449067
-16.716309	11.416016	-41.759596
-14.677734	9.377441	-41.075695
-14.677734	4.892578	-40.395583
-12.639160	1.630859	-39.718731
-11.416016	8.562012	-39.044309
-9.785156	10.600586	-38.371310
-8.154297	5.300293	-37.698771
-7.338867	11.416016	-37.025877
-5.708008	15.900879	-36.352067
-3.261719	19.978027	-35.676376
0.000000	19.570313	-34.997029
-2.446289	24.870605	-34.313192
-2.446289	25.686035	-33.626215
-4.892578	29.355469	-32.938249
-3.261719	28.947754	-32.250916
-2.446289	21.608887	-31.564483
0.000000	21.201172	-30.878130
-1.223145	15.900879	-30.191397
2.446289	19.162598	-29.504059
1.630859	19.978027	-28.815473
1.630859	16.716309	-28.125884
0.407715	20.385742	-27.436597
-1.223145	21.608887	-26.749393
0.407715	22.832031	-26.065651
-2.446289	26.501465	-25.386253
1.630859	22.832031	-24.711716
-1.223145	26.909180	-24.041886
-0.815430	38.325195	-23.377575
0.407715	42.402344	-22.719445
-0.815430	39.140625	-22.067479
4.077148	41.179199	-21.421119
5.708008	27.316895	-20.778113
2.854004	19.570313	-20.137591
0.815430	15.493164	-19.501721
2.446289	17.124023	-18.872352
2.854004	4.484863	-18.249423
9.377441	4.077148	-17.630941
12.231445	12.231445	-17.013069
12.639160	14.270020	-16.393109
12.231445	15.493164	-15.770950
12.231445	31.394043	-15.147453
11.823730	34.655762	-14.523547
11.823730	37.509766	-13.900122
16.716309	39.956055	-13.276631
15.493164	25.686035	-12.651485
11.823730	18.754883	-12.025736
13.454590	30.986328	-11.401889
6.931152	27.316895	-10.782336
14.270020	21.201172	-10.168603
20.385742	24.055176	-9.557323
19.570313	16.716309	-8.944100
14.270020	6.931152	-8.329881
13.454590	13.046875	-7.718570
19.162598	14.677734	-7.110998
23.647461	12.639160	-6.503672
26.501465	26.501465	-5.892613
25.278320	39.548340	-5.276277
22.424316	40.363770	-4.656191
22.424316	36.286621	-4.035000
24.055176	30.578613	-3.413727
18.754883	30.986328	-2.793563
21.608887	15.493164	-2.176718
23.239746	24.055176	-1.563152
24.462891	21.201172	-0.951435
28.132324	21.201172	-0.340090
26.501465	20.385742	0.272077
28.132324	19.570313	0.884922
26.501465	13.454590	1.497771
28.947754	15.493164	2.110192
27.316895	18.347168	2.721992
24.462891	15.493164	3.331590
27.316895	23.239746	3.937268
28.132324	36.694336	4.539531
31.801758	42.402344	5.140043
28.132324	36.694336	5.739431
29.763184	41.586914	6.336580
27.724609	38.325195	6.930322
24.462891	30.986328	7.518687
23.239746	27.724609	8.098731
23.647461	25.686035	8.668829
26.909180	21.201172	9.229582
25.278320	23.239746	9.782217
25.278320	25.686035	10.326521
23.239746	21.201172	10.861335
23.239746	24.870605	11.385457
27.724609	28.947754	11.899464
26.909180	26.501465	12.405414
30.986328	17.124023	12.904964
27.316895	14.677734	13.398841
28.132324	23.239746	13.886141
30.578613	28.947754	14.366757
32.209473	47.702637	14.842415
26.909180	37.509766	15.312947
25.278320	29.763184	15.775306
23.647461	35.878906	16.226699
22.424316	36.694336	16.665543
21.201172	38.732910	17.090551
25.278320	37.509766	17.502013
27.724609	32.617187	17.902572
26.501465	21.608887	18.294337
22.424316	25.686035	18.676224
24.055176	25.686035	19.046243
23.647461	31.394043	19.404224
28.132324	32.617187	19.751726
29.763184	31.801758	20.091538
32.209473	31.801758	20.426329
34.248047	38.732910	20.758223
29.355469	41.179199	21.087432
32.209473	45.664062	21.412445
28.947754	36.694336	21.732470
32.617187	38.325195	22.047395
32.617187	28.947754	22.358191
39.548340	30.986328	22.667505
38.325195	33.024902	22.978399
35.063477	28.947754	23.290794
32.617187	24.870605	23.601619
28.132324	19.162598	23.907296
30.578613	23.239746	24.205382
30.578613	13.454590	24.496015
33.024902	22.424316	24.780512
35.063477	25.686035	25.060673
35.471191	32.209473	25.338221
37.102051	35.878906	25.614160
32.209473	50.964355	25.887953
29.763184	49.333496	26.156625
31.394043	42.402344	26.417983
35.471191	30.986328	26.673368
34.655762	18.347168	26.925141
36.286621	19.978027	27.174270
35.471191	21.201172	27.421042
36.694336	15.900879	27.665627
35.063477	8.969727	27.907866
40.363770	18.754883	28.148467
42.810059	16.716309	28.390251
37.102051	12.231445	28.634089
34.248047	15.900879	28.876525
36.286621	17.124023	29.114905
36.286621	28.540039	29.349483
37.102051	39.140625	29.580935
38.325195	52.595215	29.809909
32.617187	44.848633	30.035634
30.578613	33.432617	30.254806
28.540039	28.947754	30.464388
30.578613	24.462891	30.663522
39.140625	22.424316	30.855256
39.956055	20.385742	31.044974
42.402344	17.531738	31.235886
41.586914	21.201172	31.429024
44.440918	25.686035	31.625047
40.771484	23.239746	31.823940
38.732910	18.347168	32.023651
47.702637	21.201172	32.224254
49.741211	21.608887	32.430209
45.664062	28.947754	32.643416
41.586914	37.102051	32.860642
40.771484	50.556641	33.078051
41.179199	48.925781	33.294014
44.848633	55.856934	33.509333
44.033203	51.372070	33.725632
39.140625	40.363770	33.941889
41.586914	31.801758	34.155737
43.625488	27.724609	34.367596
45.664062	27.316895	34.579582
48.925781	21.608887	34.793931
48.925781	20.385742	35.012560
52.187500	23.647461	35.236757
48.925781	21.201172	35.466893
48.518066	35.878906	35.701492
48.110352	36.694336	35.938928
47.294922	37.102051	36.178286
48.110352	35.471191	36.418908
47.294922	34.655762	36.660483
46.479492	39.140625	36.902285
45.664062	42.402344	37.143193
41.586914	43.217773	37.381281
44.440918	36.286621	37.614821
45.664062	29.763184	37.844522
44.848633	23.647461	38.071495
46.479492	27.316895	38.295947
46.479492	24.870605	38.518399
48.110352	22.424316	38.739564
48.110352	22.832031	38.960126
49.741211	23.239746	39.180735
51.779785	28.947754	39.402552
55.041504	30.986328	39.627644
58.303223	27.724609	39.858733
57.080078	26.909180	40.097552
57.487793	25.278320	40.343823
53.002930	28.947754	40.595663
51.779785	28.540039	40.849985
53.818359	31.801758	41.105124
49.333496	27.724609	41.360346
50.556641	33.432617	41.613881
50.964355	37.509766	41.865109
55.856934	39.140625	42.115693
62.380371	31.394043	42.369789
58.710937	35.878906	42.630719
59.118652	45.256348	42.897793
55.449219	35.878906	43.168738
55.041504	24.055176	43.441166
52.595215	28.947754	43.712902
51.372070	35.471191	43.981980
52.595215	45.664062	44.247273
57.487793	58.303223	44.510279
55.449219	51.372070	44.773184
55.449219	47.294922	45.035928
55.449219	43.625488	45.297708
53.410645	32.617187	45.557758
53.002930	30.986328	45.814703
57.487793	31.801758	46.068844
59.934082	31.801758	46.322931
60.341797	23.647461	46.579271
61.564941	29.763184	46.838671
61.157227	32.617187	47.101361
59.934082	28.947754	47.366703
59.118652	36.694336	47.633334
56.672363	42.402344	47.899523
57.487793	35.471191	48.163724
61.564941	34.655762	48.426607
63.603516	41.179199	48.690848
66.865234	47.294922	48.959106
63.195801	40.363770	49.232203
60.749512	37.509766	49.507918
63.195801	26.909180	49.784236
60.341797	28.540039	50.060734
55.041504	29.355469	50.334862
56.672363	36.694336	50.603336
57.487793	27.724609	50.865806
65.234375	17.531738	51.125162
68.903809	11.823730	51.386519
64.011230	15.493164	51.652191
57.487793	19.978027	51.918382
57.080078	27.724609	52.179969
61.564941	34.655762	52.436137
59.118652	36.286621	52.688468
57.487793	39.548340	52.936336
59.118652	36.694336	53.178612
61.157227	32.617187	53.416258
59.118652	41.179199	53.650197
59.934082	39.548340	53.880032
59.934082	34.655762	54.105600
58.710937	27.316895	54.326748
58.710937	17.124023	54.542804
59.934082	12.231445	54.753771
59.934082	16.716309	54.960300
63.603516	26.909180	55.163660
62.788086	27.724609	55.365495
66.865234	36.694336	55.567269
66.865234	32.617187	55.770700
67.680664	28.947754	55.976785
67.272949	31.801758	56.185508
64.826660	39.140625	56.395888
58.710937	44.440918	56.604629
55.449219	47.294922	56.806874
61.157227	51.779785	57.000884
62.788086	48.925781	57.189400
60.749512	39.548340	57.374291
61.157227	35.878906	57.554994
59.934082	26.909180	57.730865
67.680664	18.754883	57.903439
64.418945	19.162598	58.075573
72.165527	27.724609	58.249465
68.496094	38.325195	58.427101
63.603516	48.110352	58.606946
65.642090	43.217773	58.785712
62.788086	32.617187	58.962297
58.710937	22.832031	59.134579
59.118652	33.432617	59.299787
61.564941	35.063477	59.457854
57.487793	35.878906	59.609259
57.487793	39.140625	59.752645
59.934082	32.617187	59.887797
60.749512	31.801758	60.016444
62.380371	26.909180	60.140246
64.418945	19.162598	60.260900
62.380371	17.124023	60.379384
68.496094	21.201172	60.496744
68.903809	27.724609	60.615692
71.757812	22.832031	60.738601
68.903809	15.493164	60.866019
68.496094	22.424316	60.996753
71.350098	28.947754	61.130299
67.680664	33.432617	61.266818
68.496094	39.548340	61.405068
60.749512	33.432617	61.542256
62.788086	31.801758	61.674965
61.564941	28.540039	61.801973
59.934082	24.055176	61.922869
64.826660	16.308594	62.037912
71.757812	25.686035	62.151207
67.272949	24.870605	62.266463
72.573242	14.677734	62.384328
72.573242	8.969727	62.506166
71.757812	15.493164	62.632846
71.757812	17.124023	62.763589
79.504395	37.102051	62.899892
75.427246	43.217773	63.044361
71.757812	39.956055	63.195401
73.796387	38.732910	63.350094
70.534668	29.355469	63.507361
71.757812	21.608887	63.666064
68.496094	24.055176	63.824900
64.826660	27.724609	63.981339
65.234375	24.870605	64.132649
66.865234	24.055176	64.278581
68.088379	20.793457	64.420512
69.719238	16.716309	64.559972
72.980957	11.008301	64.698962
73.796387	9.377441	64.839714
74.611816	13.454590	64.983499
67.680664	16.308594	65.128851
68.496094	20.385742	65.272332
74.611816	25.278320	65.414092
70.942383	28.540039	65.556521
75.427246	37.509766	65.700299
75.427246	47.702637	65.846603
77.058105	43.217773	65.996773
69.719238	36.694336	66.149405
68.496094	36.286621	66.300478
68.496094	27.316895	66.447334
68.496094	24.462891	66.589688
68.903809	20.385742	66.727702
72.980957	21.201172	66.862712
75.834961	19.162598	66.997712
75.019531	15.900879	67.134916
73.388672	12.231445	67.273974
79.096680	11.416016	67.415083
75.427246	25.686035	67.559609
77.058105	28.540039	67.707245
77.465820	38.732910	67.857696
75.834961	37.102051	68.010889
74.611816	41.586914	68.165469
76.650391	39.548340	68.320675
72.980957	37.509766	68.476101
75.019531	44.440918	68.630716
72.980957	42.810059	68.783968
69.719238	32.209473	68.934364
69.311523	19.978027	69.079519
71.350098	15.493164	69.218983
69.311523	14.677734	69.353296
71.757812	18.347168	69.482656
71.757812	24.055176	69.607903
68.088379	11.416016	69.728770
71.757812	19.570313	69.844364
71.757812	22.424316	69.955766
71.757812	27.724609	70.064014
68.496094	32.617187	70.168280
69.719238	37.102051	70.267242
65.642090	37.102051	70.359752
66.865234	40.363770	70.444504
69.311523	43.625488	70.521977
69.311523	35.878906	70.594025
72.980957	26.501465	70.662424
73.388672	15.493164	70.729304
75.019531	15.900879	70.796268
75.834961	23.239746	70.864421
76.650391	30.986328	70.934709
81.135254	31.801758	71.008782
79.504395	21.201172	71.088532
76.650391	14.270020	71.173189
76.650391	18.347168	71.260516
75.834961	28.540039	71.349335
79.504395	35.063477	71.440020
76.242676	41.179199	71.533249
76.650391	40.363770	71.628166
76.242676	24.462891	71.723845
78.688965	24.870605	71.820686
77.058105	35.878906	71.919284
75.019531	39.548340	72.018708
75.427246	45.256348	72.117421
74.611816	30.986328	72.214819
75.427246	11.416016	72.310749
73.388672	17.124023	72.404858
77.873535	28.947754	72.497450
71.757812	28.947754	72.588710
77.465820	35.471191	72.678068
72.165527	30.986328	72.765516
75.834961	28.947754	72.850727
71.350098	33.024902	72.933070
70.942383	39.548340	73.011090
76.242676	47.294922	73.084900
73.796387	41.179199	73.156649
75.427246	39.956055	73.226889
73.388672	24.055176	73.295295
65.642090	28.132324	73.359200
71.350098	21.608887	73.415635
69.719238	21.201172	73.465414
72.980957	12.639160	73.510286
73.388672	23.239746	73.551819
71.757812	33.432617	73.590764
72.573242	27.724609	73.626660
72.573242	35.471191	73.659608
77.465820	39.140625	73.691207
75.834961	39.140625	73.723627
79.504395	36.286621	73.758189
73.388672	42.810059	73.794652
76.242676	40.363770	73.831392
69.311523	34.655762	73.866430
68.496094	34.248047	73.896702
67.680664	27.724609	73.919927
68.903809	30.578613	73.936079
71.350098	35.878906	73.946533
73.796387	34.655762	73.953784
74.611816	22.424316	73.960114
81.135254	19.570313	73.968341
80.727539	24.055176	73.981905
82.766113	16.308594	74.002585
83.581543	17.124023	74.031215
78.688965	24.870605	74.067083
79.912109	43.625488	74.107789
80.727539	60.749512	74.152642
77.058105	60.749512	74.201193
72.573242	44.440918	74.250332
74.611816	29.763184	74.297195
76.242676	38.732910	74.342159
80.319824	39.956055	74.387724
73.796387	37.102051	74.434674
75.427246	28.947754	74.480967
75.427246	29.763184	74.525729
76.242676	21.201172	74.569623
77.873535	28.947754	74.613501
79.912109	35.471191	74.658923
83.989258	38.732910	74.708342
84.396973	46.479492	74.764310
80.319824	42.402344	74.826685
77.465820	42.402344	74.892327
75.019531	44.440918	74.957806
80.727539	51.779785	75.022524
78.688965	53.410645	75.088270
77.465820	49.741211	75.155033
79.912109	51.779785	75.222164
81.135254	52.187500	75.290859
79.504395	51.779785	75.361833
82.766113	43.625488	75.435229
77.058105	31.801758	75.510645
72.573242	24.055176	75.584592
79.504395	24.870605	75.655022
77.873535	32.617187	75.724057
80.727539	34.248047	75.793400
81.135254	47.294922	75.864142
78.688965	47.294922	75.936468
77.465820	50.964355	76.008730
76.650391	44.440918	76.079356
78.688965	48.518066	76.148131
80.727539	42.402344	76.216460
80.727539	35.063477	76.285897
79.504395	46.887207	76.356533
79.912109	53.818359	76.427704
81.542969	41.179199	76.499633
75.019531	35.878906	76.571460
77.058105	31.801758	76.640651
77.465820	23.647461	76.706716
77.465820	21.201172	76.770478
79.912109	27.724609	76.832725
76.650391	28.540039	76.893886
73.796387	30.986328	76.952128
77.465820	30.986328	77.006128
71.757812	30.986328	77.055701
74.611816	42.402344	77.099710
75.427246	59.118652	77.138575
76.650391	55.041504	77.173988
72.573242	45.256348	77.205854
72.980957	44.848633	77.232586
73.388672	31.394043	77.253639
72.573242	31.394043	77.269356
73.796387	31.394043	77.279962
72.165527	29.763184	77.285677
74.611816	19.570313	77.286824
73.388672	19.978027	77.284145
73.388672	23.239746	77.277815
76.650391	15.493164	77.268542
80.727539	28.947754	77.259254
79.096680	40.771484	77.252532
75.834961	37.509766	77.247623
76.242676	32.209473	77.242417
79.096680	45.256348	77.237039
75.427246	43.217773	77.232144
77.058105	42.810059	77.226968
74.611816	49.333496	77.220777
77.465820	38.732910	77.213518
76.650391	30.578613	77.205890
79.096680	29.355469	77.198879
72.980957	24.462891	77.191932
74.611816	11.416016	77.182910
73.388672	9.785156	77.170845
75.427246	15.493164	77.156209
74.611816	18.754883	77.139671
77.465820	30.578613	77.122189
76.650391	30.578613	77.104897
77.873535	28.947754	77.088446
73.388672	36.694336	77.072067
75.427246	43.625488	77.054272
67.680664	35.471191	77.033004
68.496094	33.024902	77.005122
70.942383	34.655762	76.969991
71.757812	40.363770	76.929690
70.942383	44.033203	76.885352
73.388672	32.617187	76.837636
75.427246	31.801758	76.788351
71.757812	24.055176	76.738369
73.388672	21.201172	76.686812
69.311523	20.385742	76.632625
66.865234	20.385742	76.573630
68.496094	30.986328	76.508178
68.496094	33.024902	76.436844
75.834961	35.063477	76.362327
77.058105	42.402344	76.289027
78.688965	51.779785	76.219962
77.465820	43.625488	76.155872
71.350098	35.878906	76.094778
75.427246	36.694336	76.034144
75.019531	29.763184	75.974441
73.388672	25.686035	75.916119
74.611816	26.501465	75.858535
69.311523	29.763184	75.800535
79.504395	21.608887	75.742416
74.611816	20.385742	75.686920
75.427246	19.162598	75.634309
71.757812	21.608887	75.582686
75.427246	33.432617	75.531311
78.688965	35.063477	75.482048
79.504395	30.578613	75.437744
77.465820	30.986328	75.398971
80.727539	30.986328	75.365519
80.727539	33.024902	75.338360
71.350098	32.209473	75.315631
68.903809	39.548340	75.291586
72.573242	41.586914	75.263525
73.796387	36.694336	75.233267
77.465820	34.655762	75.203512
77.465820	24.055176	75.176518
77.873535	7.746582	75.153261
73.388672	13.046875	75.132630
76.650391	19.162598	75.113137
76.650391	21.608887	75.095286
74.611816	28.947754	75.079342
72.980957	39.548340	75.063736
71.757812	42.402344	75.046756
72.573242	44.440918	75.027626
75.834961	41.586914	75.007425
77.465820	39.140625	74.988581
73.388672	39.956055	74.971695
73.796387	35.878906	74.955089
75.019531	27.724609	74.938231
71.757812	25.278320	74.921045
71.757812	20.793457	74.902171
66.865234	21.201172	74.879563
67.272949	24.055176	74.850951
67.680664	30.578613	74.815672
72.573242	32.617187	74.775673
74.611816	29.763184	74.734423
75.427246	29.763184	74.694591
73.388672	31.394043	74.656585
66.457520	36.286621	74.617684
71.350098	41.586914	74.575076
71.757812	43.625488	74.529833
69.719238	38.732910	74.483085
69.311523	32.209473	74.433878
68.496094	33.432617	74.381411
73.388672	28.947754	74.326637
69.311523	20.385742	74.271003
74.611816	19.570313	74.215142
78.688965	17.124023	74.161908
79.504395	14.270020	74.114986
73.388672	18.754883	74.074033
72.980957	31.801758	74.035715
75.427246	21.201172	73.998774
72.573242	24.055176	73.963617
66.865234	32.617187	73.927841
69.311523	36.694336	73.888408
66.457520	38.732910	73.844560
71.757812	44.440918	73.797079
69.311523	40.363770	73.747572
73.388672	32.617187	73.697360
73.796387	37.102051	73.648136
73.796387	31.394043	73.601191
74.611816	32.617187	73.556792
69.311523	30.986328	73.513908
68.496094	28.132324	73.469729
69.311523	17.531738	73.422754
69.311523	20.385742	73.373374
79.096680	24.055176	73.324534
76.650391	30.986328	73.280759
77.873535	45.256348	73.243472
76.242676	43.625488	73.211990
75.427246	39.548340	73.185334
69.311523	33.432617	73.160848
70.942383	41.586914	73.135463
67.272949	44.440918	73.107531
67.680664	39.548340	73.075805
65.234375	33.432617	73.039098
63.603516	24.870605	72.996068
62.788086	24.055176	72.945333
66.865234	34.655762	72.887509
71.757812	38.325195	72.826191
72.573242	26.909180	72.765459
69.311523	22.424316	72.706205
75.427246	25.686035	72.648533
75.019531	22.832031	72.594680
73.388672	26.909180	72.545494
68.088379	32.617187	72.498459
66.865234	46.479492	72.449993
62.788086	45.664062	72.397105
64.418945	49.333496	72.338016
67.272949	46.479492	72.273605
64.826660	38.732910	72.205466
69.311523	33.024902	72.134481
69.311523	29.355469	72.062570
67.680664	33.432617	71.990597
66.457520	31.801758	71.917465
68.903809	25.686035	71.842873
68.088379	18.347168	71.767716
70.534668	20.385742	71.692956
71.350098	29.763184	71.619937
69.311523	33.432617	71.549195
67.680664	42.402344	71.479413
72.980957	42.402344	71.410623
72.980957	44.033203	71.345208
77.465820	41.586914	71.285654
72.573242	52.187500	71.232829
73.388672	55.041504	71.185306
67.680664	46.479492	71.140537
66.865234	53.818359	71.095447
65.642090	45.256348	71.047848
64.826660	41.179199	70.996834
67.680664	31.801758	70.942611
68.903809	30.578613	70.886989
73.388672	28.540039	70.832661
75.019531	27.724609	70.782731
71.757812	30.986328	70.738230
69.311523	23.239746	70.697031
70.942383	32.209473	70.657314
74.611816	20.793457	70.620231
70.534668	28.540039	70.586989
69.311523	40.771484	70.555947
68.496094	55.856934	70.525112
67.680664	47.294922	70.493541
64.011230	40.771484	70.459696
60.749512	35.063477	70.420716
61.564941	29.355469	70.374412
64.826660	26.501465	70.321591
63.603516	27.316895	70.264212
68.496094	24.055176	70.204041
64.418945	21.201172	70.142446
65.234375	24.055176	70.078913
63.603516	22.832031	70.012526
70.534668	24.055176	69.944662
75.427246	29.763184	69.879958
77.465820	30.986328	69.823265
80.319824	33.432617	69.777385
76.650391	35.063477	69.742948
78.688965	33.432617	69.718829
70.942383	33.024902	69.702658
68.496094	28.947754	69.689915
66.865234	32.617187	69.676709
66.457520	33.432617	69.661469
64.011230	25.278320	69.643017
63.603516	19.162598	69.620019
69.311523	19.978027	69.593348
72.165527	11.823730	69.566839
72.573242	13.046875	69.543620
75.019531	14.270020	69.525172
75.427246	15.493164	69.512798
73.796387	26.501465	69.506663
74.611816	27.724609	69.505956
73.388672	19.162598	69.510111
75.427246	22.424316	69.519010
74.611816	40.771484	69.532964
77.465820	45.664062	69.552586
70.942383	40.771484	69.577171
67.680664	40.771484	69.602933
70.942383	37.102051	69.627221
74.611816	40.363770	69.651898
77.873535	27.316895	69.680561
76.650391	23.647461	69.715356
73.796387	17.124023	69.755433
76.650391	18.347168	69.799439
76.650391	27.724609	69.847900
79.096680	19.570313	69.901956
77.465820	17.531738	69.962152
78.688965	24.055176	70.028255
79.504395	32.617187	70.100356
83.581543	32.209473	70.179927
82.358398	38.325195	70.268583
82.766113	37.102051	70.366353
77.465820	32.617187	70.471222
82.766113	28.947754	70.581474
79.912109	16.308594	70.697390
83.989258	22.424316	70.819558
86.435547	29.355469	70.949598
82.358398	23.239746	71.088305
80.319824	18.754883	71.233104
80.727539	23.239746	71.381532
83.173828	12.639160	71.533590
80.319824	6.931152	71.689596
86.435547	11.008301	71.849958
81.135254	17.531738	72.015380
83.581543	28.540039	72.184924
86.843262	29.763184	72.358974
81.542969	38.732910	72.538108
77.058105	41.179199	72.718801
76.242676	46.479492	72.896829
78.688965	41.179199	73.071163
77.465820	34.655762	73.242535
77.058105	33.432617	73.410795
79.504395	28.132324	73.576011
79.504395	23.239746	73.739328
81.542969	22.832031	73.901838
82.766113	16.308594	74.064798
79.912109	18.347168	74.228446
83.581543	17.124023	74.392364
84.396973	25.278320	74.557760
82.766113	28.947754	74.725358
81.135254	30.578613	74.893810
81.135254	37.509766	75.061615
86.843262	51.372070	75.229698
83.581543	44.440918	75.400011
86.843262	40.363770	75.572917
80.319824	47.294922	75.747259
77.873535	42.402344	75.919578
78.688965	32.209473	76.086998
78.688965	31.801758	76.249351
75.019531	29.763184	76.405947
76.650391	25.278320	76.555382
79.504395	35.063477	76.698467
80.319824	31.801758	76.837481
74.611816	21.608887	76.972142
75.427246	27.724609	77.099934
76.242676	34.248047	77.220177
74.611816	36.286621	77.333303
77.873535	39.956055	77.439727
80.319824	43.625488	77.541571
76.650391	36.694336	77.640113
79.504395	32.617187	77.734863
76.650391	31.801758	77.825679
72.573242	28.540039	77.910824
73.388672	22.424316	77.987787
76.650391	22.424316	78.057073
75.427246	18.754883	78.120564
72.573242	16.308594	78.177918
73.388672	28.132324	78.227749
77.465820	40.363770	78.271094
76.650391	31.801758	78.310343
77.465820	30.986328	78.346498
75.834961	31.801758	78.379447
75.834961	30.986328	78.408657
73.388672	33.432617	78.433197
72.980957	35.878906	78.451859
76.650391	35.063477	78.464999
77.058105	37.509766	78.474780
80.727539	43.217773	78.483485
73.388672	35.471191	78.491263
69.311523	28.132324	78.494183
68.496094	21.201172	78.488179
72.980957	21.201172	78.473340
75.427246	22.832031	78.452867
76.242676	19.570313	78.429714
74.611816	21.201172	78.404669
75.427246	19.162598	78.377417
80.319824	28.540039	78.349371
79.096680	30.986328	78.323059
79.504395	31.394043	78.299181
83.581543	33.024902	78.278616
83.173828	47.294922	78.263376
85.620117	55.041504	78.254736
83.173828	59.118652	78.252942
79.096680	50.556641	78.255971
77.465820	35.878906	78.260389
73.388672	33.432617	78.263129
72.165527	30.986328	78.261373
78.688965	26.909180	78.255326
78.688965	14.677734	78.248295
82.358398	16.308594	78.243010
77.465820	17.531738	78.240039
81.542969	19.978027	78.238746
85.212402	35.471191	78.240876
85.620117	42.810059	78.249378
81.135254	40.771484	78.263955
77.465820	35.878906	78.281102
77.465820	39.140625	78.297579
79.096680	44.440918	78.312865
76.242676	47.294922	78.327103
70.534668	48.925781	78.337756
73.388672	47.294922	78.341976
74.611816	47.294922	78.340372
77.873535	42.402344	78.335458
79.912109	39.548340	78.329961
79.096680	34.248047	78.325625
77.465820	30.578613	78.322081
77.058105	29.763184	78.318120
80.727539	27.316895	78.314085
81.135254	34.655762	78.311913
80.319824	35.063477	78.312484
80.319824	41.179199	78.315352
75.834961	41.179199	78.319019
77.465820	45.256348	78.321516
80.319824	44.440918	78.323322
81.135254	42.402344	78.326608
79.096680	46.887207	78.331947
81.542969	46.479492	78.339026
76.650391	38.732910	78.347223
84.396973	29.763184	78.356585
83.173828	27.724609	78.369514
80.319824	12.639160	78.386477
79.096680	14.270020	78.405131
76.242676	20.385742	78.423238
73.796387	23.647461	78.438341
79.504395	31.801758	78.450023
75.834961	27.724609	78.459821
75.427246	27.724609	78.467273
73.388672	28.540039	78.470765
72.573242	42.810059	78.469081
68.496094	41.179199	78.460420
68.903809	28.540039	78.442860
69.311523	30.986328	78.416073
71.757812	25.686035	78.381468
69.719238	23.239746	78.340293
72.573242	22.424316	78.293211
71.350098	22.424316	78.241181
70.942383	12.231445	78.184482
72.573242	12.231445	78.123278
75.427246	23.647461	78.059337
75.834961	22.832031	77.994886
72.573242	33.024902	77.930121
70.942383	34.655762	77.863090
71.350098	32.617187	77.792361
72.573242	31.394043	77.718282
72.573242	33.432617	77.641832
73.388672	33.432617	77.563734
76.650391	37.509766	77.485431
75.427246	35.878906	77.408621
74.611816	28.947754	77.333317
78.688965	30.578613	77.259850
77.873535	29.763184	77.189929
79.096680	24.462891	77.124430
83.581543	28.132324	77.064828
82.358398	28.947754	77.013275
75.427246	28.947754	76.968176
75.834961	15.493164	76.925428
73.796387	15.900879	76.882829
68.496094	17.124023	76.838061
66.865234	23.239746	76.787519
68.496094	32.617187	76.729699
71.350098	41.179199	76.666169
69.311523	36.694336	76.598646
73.388672	41.179199	76.528133
67.680664	52.595215	76.454946
68.903809	34.655762	76.377676
69.311523	23.647461	76.295840
71.757812	21.608887	76.210909
69.719238	21.201172	76.123970
72.165527	17.124023	76.035418
70.534668	16.308594	75.945742
70.942383	16.308594	75.854979
66.865234	17.124023	75.761989
71.350098	23.647461	75.666113
70.942383	29.763184	75.568762
72.573242	33.432617	75.471496
70.534668	37.509766	75.374629
70.942383	47.294922	75.277708
70.942383	40.771484	75.180516
68.496094	41.586914	75.082633
65.642090	36.286621	74.982157
65.234375	27.724609	74.877062
64.418945	28.132324	74.766491
68.903809	24.462891	74.651450
73.388672	23.239746	74.535582
68.088379	18.347168	74.421189
65.642090	18.754883	74.306075
66.457520	29.763184	74.187931
70.534668	30.986328	74.067874
71.350098	37.509766	73.948688
75.019531	29.355469	73.832922
71.757812	40.363770	73.721828
72.573242	52.187500	73.614775
76.242676	65.234375	73.512229
74.611816	51.372070	73.415806
69.719238	30.578613	73.324152
71.757812	24.870605	73.234685
65.234375	18.347168	73.145470
68.903809	19.570313	73.054663
71.757812	24.055176	72.963396
70.534668	19.978027	72.873926
69.719238	9.785156	72.786159
71.757812	5.300293	72.699897
75.834961	8.969727	72.617089
75.427246	10.600586	72.540236
72.573242	24.055176	72.469257
74.611816	24.055176	72.402889
73.388672	22.424316	72.340992
71.350098	26.501465	72.282787
68.496094	41.179199	72.226025
70.942383	39.548340	72.169308
69.311523	34.655762	72.112801
68.496094	33.024902	72.056125
71.757812	27.316895	71.999348
71.757812	16.308594	71.944033
73.388672	16.308594	71.891458
72.573242	16.308594	71.842195
70.942383	16.308594	71.795718
69.311523	12.639160	71.750451
68.496094	14.677734	71.704887
68.903809	13.046875	71.658337
68.496094	24.462891	71.610788
70.942383	25.278320	71.562870
73.796387	28.132324	71.516579
75.834961	32.617187	71.474567
73.388672	33.024902	71.437862
67.680664	23.239746	71.404013
66.865234	29.763184	71.369071
62.380371	43.217773	71.330016
68.496094	37.509766	71.286112
70.942383	34.248047	71.240301
75.019531	28.132324	71.196682
74.611816	25.278320	71.157878
71.757812	14.677734	71.123819
75.427246	14.677734	71.093683
76.650391	13.046875	71.068824
73.388672	12.231445	71.049777
72.165527	24.870605	71.034587
71.757812	22.424316	71.021488
71.757812	23.239746	71.009863
68.496094	30.986328	70.998694
68.088379	35.878906	70.986152
71.757812	33.432617	70.972204
75.834961	37.102051	70.959820
77.058105	39.548340	70.952370
76.242676	30.578613	70.951139
75.834961	25.686035	70.955630
73.388672	23.239746	70.964509
73.388672	23.647461	70.976175
64.826660	20.385742	70.987599
67.272949	22.424316	70.994923
68.496094	26.909180	70.997683
69.719238	24.870605	70.997690
69.311523	26.909180	70.995924
68.903809	28.540039	70.992469
70.942383	39.140625	70.987618
69.311523	44.848633	70.981975
71.757812	44.440918	70.975904
73.388672	34.655762	70.970716
68.496094	30.986328	70.966589
71.350098	33.432617	70.962089
68.496094	34.655762	70.956701
64.418945	29.355469	70.948650
64.418945	29.763184	70.935174
63.195801	36.694336	70.915140
63.603516	35.471191	70.888331
63.195801	30.986328	70.854869
66.865234	22.424316	70.815946
68.496094	23.239746	70.774100
64.418945	37.509766	70.730257
64.826660	34.655762	70.682947
64.826660	36.694336	70.631521
65.234375	41.586914	70.576432
68.496094	48.925781	70.518976
67.680664	39.956055	70.460928
67.680664	35.471191	70.402802
64.826660	35.878906	70.343700
62.788086	36.286621	70.281694
68.496094	39.548340	70.216658
68.088379	38.325195	70.151155
69.719238	38.325195	70.086989
69.311523	22.832031	70.024808
66.457520	33.024902	69.964052
62.788086	39.548340	69.902151
65.642090	40.363770	69.837293
68.496094	37.509766	69.770966
68.496094	25.278320	69.705556
68.088379	28.132324	69.641731
64.826660	41.179199	69.578417
67.680664	55.449219	69.514585
64.826660	59.526367	69.450219
69.311523	56.672363	69.385840
66.865234	48.518066	69.322479
65.234375	34.655762	69.259621
63.195801	35.471191	69.195275
63.195801	37.509766	69.128077
65.642090	31.801758	69.058332
65.234375	19.570313	68.987409
59.526367	24.055176	68.914364
62.380371	34.655762	68.837013
63.195801	38.732910	68.755848
71.757812	42.402344	68.674553
71.757812	34.248047	68.597932
72.980957	36.286621	68.528425
70.942383	31.801758	68.465890
65.642090	39.548340	68.407933
61.157227	42.402344	68.349911
60.341797	36.694336	68.287924
60.749512	39.140625	68.220717
59.118652	31.801758	68.148171
64.011230	32.209473	68.071137
60.749512	25.686035	67.991186
66.865234	25.278320	67.909713
66.865234	21.608887	67.829227
66.865234	22.424316	67.751375
72.573242	21.201172	67.677619
63.195801	23.239746	67.608387
64.011230	24.870605	67.540333
62.380371	28.540039	67.471012
62.788086	39.956055	67.400018
64.011230	39.548340	67.327610
57.080078	46.479492	67.252856
59.118652	46.479492	67.173157
62.788086	45.256348	67.089034
60.749512	41.586914	67.002705
60.749512	37.509766	66.914252
62.788086	31.394043	66.823866
63.603516	24.055176	66.733013
59.934082	18.347168	66.641811
59.118652	14.677734	66.548443
55.449219	19.978027	66.450749
57.487793	17.531738	66.347422
59.118652	14.270020	66.239360
62.788086	20.385742	66.129249
64.011230	31.801758	66.019973
69.311523	30.578613	65.914610
66.865234	29.763184	65.815555
69.311523	33.432617	65.723378
64.418945	35.063477	65.637219
62.788086	33.432617	65.554542
64.826660	37.102051	65.473668
63.195801	39.548340	65.394815
64.826660	39.548340	65.318081
69.311523	30.986328	65.245057
66.865234	22.424316	65.177795
61.564941	7.338867	65.114604
64.826660	15.493164	65.052796
62.788086	19.162598	64.992159
56.672363	28.947754	64.930882
59.118652	30.986328	64.865953
59.118652	33.024902	64.797286
62.788086	37.509766	64.726726
58.303223	33.432617	64.655185
64.418945	39.140625	64.582996
65.642090	45.664062	64.512621
69.311523	42.810059	64.447264
67.272949	41.179199	64.388480
62.380371	28.132324	64.334641
61.564941	22.424316	64.282260
67.272949	27.316895	64.231110
63.603516	32.617187	64.183011
64.826660	28.540039	64.137768
64.011230	24.055176	64.094763
63.603516	23.239746	64.053727
62.380371	19.978027	64.013863
65.234375	22.424316	63.975159
59.118652	21.608887	63.937177
65.642090	19.162598	63.899172
64.826660	24.870605	63.862794
65.642090	35.878906	63.829504
57.487793	38.325195	63.797272
61.157227	43.625488	63.762977
58.710937	42.402344	63.725891
63.603516	39.140625	63.687144
68.088379	36.694336	63.649957
61.564941	29.355469	63.616228
61.564941	26.909180	63.583585
55.449219	17.531738	63.548694
59.118652	12.231445	63.509444
62.788086	16.308594	63.467359
65.234375	19.978027	63.426146
65.234375	25.686035	63.388057
67.680664	24.462891	63.354278
62.788086	21.608887	63.324647
62.788086	35.878906	63.297080
60.749512	42.810059	63.269692
60.341797	39.140625	63.241325
59.934082	29.763184	63.211197
55.449219	28.947754	63.177920
61.564941	27.316895	63.140814
60.749512	22.832031	63.101914
58.710937	21.201172	63.061983
53.818359	21.201172	63.018539
53.818359	11.008301	62.968683
58.303223	15.900879	62.912649
55.449219	18.347168	62.852383
60.749512	19.162598	62.789211
61.564941	23.239746	62.725580
54.633789	23.239746	62.661578
55.041504	32.209473	62.593969
52.187500	28.947754	62.520630
52.187500	34.248047	62.440508
58.710937	29.763184	62.354956
61.157227	32.209473	62.268381
59.934082	33.024902	62.183597
59.526367	24.055176	62.100506
64.826660	19.162598	62.019974
61.564941	21.201172	61.943792
61.564941	27.724609	61.871521
59.526367	28.947754	61.801667
58.303223	34.655762	61.732801
60.749512	33.024902	61.664417
61.564941	19.162598	61.597741
63.195801	9.785156	61.534267
62.788086	14.270020	61.474879
59.118652	14.677734	61.418705
59.118652	23.647461	61.363624
55.856934	36.694336	61.307823
57.080078	38.732910	61.250002
52.595215	42.402344	61.188919
48.518066	31.801758	61.121681
48.925781	20.793457	61.045425
47.702637	20.385742	60.959462
50.964355	26.909180	60.864642
50.964355	27.724609	60.762859
56.672363	22.424316	60.656892
55.856934	22.424316	60.549827
59.118652	21.201172	60.443753
63.603516	15.900879	60.341414
59.934082	19.162598	60.244999
58.710937	20.793457	60.153268
53.002930	25.278320	60.063000
50.964355	28.947754	59.970368
52.187500	35.063477	59.873328
55.041504	37.102051	59.773037
53.002930	34.655762	59.671034
53.410645	37.509766	59.567289
52.187500	28.540039	59.461348
53.002930	20.793457	59.353100
55.041504	17.531738	59.243405
58.303223	9.785156	59.134588
62.788086	-1.223145	59.030149
62.788086	8.562012	58.933213
55.449219	17.124023	58.842793
51.779785	19.162598	58.753868
55.856934	22.424316	58.663679
59.934082	31.394043	58.574628
61.564941	31.801758	58.490398
60.749512	32.617187	58.412573
59.118652	35.878906	58.340515
59.118652	29.763184	58.272969
56.672363	27.724609	58.208730
55.041504	33.024902	58.146001
55.041504	31.801758	58.083282
49.741211	28.947754	58.018816
48.925781	21.608887	57.949751
54.633789	20.793457	57.876048
51.372070	14.677734	57.799921
55.449219	15.493164	57.722418
50.964355	19.162598	57.643789
50.556641	18.347168	57.562775
51.779785	25.686035	57.478500
47.702637	26.501465	57.390663
50.556641	24.870605	57.298447
47.702637	32.209473	57.201826
52.595215	46.887207	57.101637
55.041504	44.440918	57.000611
57.487793	38.732910	56.902104
53.002930	37.102051	56.806855
56.672363	35.063477	56.714067
52.595215	34.248047	56.623405
49.741211	22.832031	56.532940
49.741211	21.201172	56.440188
53.002930	19.978027	56.345456
54.633789	24.870605	56.251077
53.002930	23.239746	56.158418
53.818359	22.424316	56.067285
51.779785	24.870605	55.977168
48.925781	24.055176	55.886511
51.779785	19.570313	55.794146
51.372070	28.947754	55.700893
59.118652	32.617187	55.609458
53.818359	31.801758	55.522427
46.479492	30.986328	55.437014
45.664062	21.608887	55.347772
47.702637	26.909180	55.253149
52.595215	30.986328	55.155629
48.518066	25.686035	55.057482
56.672363	19.978027	54.960124
55.041504	14.270020	54.866407
54.633789	24.870605	54.777441
52.595215	31.394043	54.691927
60.749512	37.509766	54.610763
61.564941	34.248047	54.537799
54.633789	29.763184	54.473490
51.779785	25.686035	54.413335
53.818359	31.801758	54.354424
52.595215	38.732910	54.296762
53.410645	33.432617	54.240460
52.187500	19.978027	54.185303
51.372070	29.763184	54.130652
53.002930	27.724609	54.076222
54.633789	19.978027	54.023131
58.303223	14.677734	53.973623
58.710937	10.600586	53.930050
58.303223	5.300293	53.893262
55.041504	12.231445	53.862024
54.633789	18.754883	53.834191
55.856934	18.347168	53.808888
54.633789	19.570313	53.786241
52.595215	18.347168	53.765296
53.818359	18.754883	53.744928
52.187500	28.132324	53.724810
53.818359	43.625488	53.704846
52.187500	40.771484	53.685048
50.964355	33.024902	53.664681
47.294922	30.986328	53.641757
46.479492	22.832031	53.613953
48.110352	32.617187	53.580554
49.333496	26.909180	53.542814
51.779785	23.647461	53.502683
47.294922	17.531738	53.460738
45.664062	21.608887	53.414966
45.256348	27.724609	53.363445
45.256348	24.870605	53.305846
51.372070	32.209473	53.244007
48.925781	29.763184	53.180753
48.925781	28.947754	53.116538
55.856934	41.179199	53.052649
52.595215	50.556641	52.991925
46.479492	39.140625	52.932785
42.810059	35.878906	52.870188
50.556641	34.655762	52.802855
53.410645	28.540039	52.734927
56.672363	26.909180	52.670895
55.856934	22.424316	52.612898
49.333496	13.454590	52.559438
43.217773	8.154297	52.505118
42.402344	16.716309	52.444894
41.179199	30.986328	52.376739
40.771484	29.763184	52.300120
41.179199	36.286621	52.215074
46.887207	33.432617	52.123678
47.294922	38.732910	52.029529
50.556641	39.548340	51.935421
49.741211	35.878906	51.843058
55.041504	33.024902	51.754277
52.595215	29.355469	51.670939
56.672363	36.694336	51.594063
53.818359	28.540039	51.524185
52.595215	31.801758	51.460312
52.595215	29.763184	51.400848
53.002930	27.316895	51.345440
55.041504	12.639160	51.294713
55.856934	11.416016	51.249901
53.002930	20.385742	51.210996
51.779785	23.239746	51.176165
51.779785	23.239746	51.143868
50.556641	19.978027	51.113381
48.925781	27.724609	51.083584
48.110352	38.732910	51.053084
49.741211	44.440918	51.021516
44.033203	33.024902	50.988106
44.848633	31.801758	50.950616
48.925781	36.286621	50.909269
50.964355	28.132324	50.867177
48.518066	25.278320	50.825915
51.779785	24.462891	50.785598
55.041504	24.055176	50.748153
53.002930	28.540039	50.715523
50.964355	26.909180	50.686775
53.002930	12.231445	50.660693
47.702637	7.746582	50.636326
49.741211	14.677734	50.611908
51.372070	23.647461	50.587574
49.333496	20.793457	50.564204
48.518066	24.055176	50.540921
49.333496	28.132324	50.516996
46.887207	24.055176	50.492054
45.664062	26.501465	50.464777
45.256348	39.140625	50.433905
44.033203	37.102051	50.398777
45.664062	28.947754	50.359303
42.402344	20.385742	50.315398
43.217773	11.416016	50.266239
42.402344	5.708008	50.211473
45.256348	17.124023	50.151947
49.741211	24.055176	50.090403
48.110352	25.686035	50.029675
47.702637	32.617187	49.970002
49.741211	28.947754	49.911294
48.110352	27.316895	49.854104
50.556641	25.686035	49.798743
44.848633	24.870605	49.744546
49.333496	28.540039	49.690338
45.664062	21.201172	49.636069
48.110352	25.278320	49.581692
50.556641	29.763184	49.528233
48.925781	35.471191	49.477206
51.372070	31.801758	49.428983
52.187500	25.686035	49.384559
48.925781	7.746582	49.344022
48.110352	5.708008	49.305524
48.925781	12.231445	49.267944
49.741211	14.677734	49.231707
53.002930	29.763184	49.198290
56.672363	24.870605	49.170493
53.818359	24.055176	49.150123
45.664062	18.347168	49.134190
46.887207	25.278320	49.117796
46.887207	16.308594	49.099480
48.110352	19.978027	49.079990
49.333496	27.724609	49.060364
46.479492	22.424316	49.040844
43.217773	21.201172	49.019410
44.848633	17.124023	48.994137
45.256348	16.308594	48.965331
50.964355	3.669434	48.935326
53.818359	7.746582	48.908063
51.372070	7.746582	48.885802
45.664062	7.338867	48.866306
47.702637	14.270020	48.846363
44.033203	24.870605	48.824623
46.479492	21.608887	48.800439
42.810059	21.201172	48.773307
48.110352	28.947754	48.743494
48.518066	26.501465	48.713082
46.887207	24.870605	48.683307
42.810059	21.201172	48.652352
43.217773	17.531738	48.617838
41.179199	14.677734	48.578572
44.440918	15.493164	48.534703
46.479492	14.270020	48.488198
45.664062	4.077148	48.440941
48.925781	11.823730	48.393978
53.818359	21.201172	48.350130
51.779785	24.870605	48.312195
49.333496	27.724609	48.279514
42.402344	28.132324	48.248245
48.110352	32.209473	48.215569
44.440918	31.394043	48.181800
44.033203	34.655762	48.146488
42.402344	31.801758	48.108132
47.294922	38.732910	48.067233
44.848633	35.471191	48.025448
45.664062	25.278320	47.983074
44.033203	21.608887	47.939542
44.848633	24.462891	47.894520
44.033203	23.647461	47.847910
51.779785	15.900879	47.801652
55.856934	28.132324	47.760707
55.041504	27.724609	47.728839
51.372070	15.085449	47.705349
45.664062	19.978027	47.686240
43.625488	17.124023	47.666837
42.810059	21.608887	47.644388
44.033203	27.724609	47.618412
44.848633	32.617187	47.589739
44.848633	36.694336	47.559270
43.217773	32.209473	47.526906
43.217773	31.801758	47.491909
42.402344	23.239746	47.453792
38.325195	21.608887	47.411238
43.217773	24.870605	47.363421
45.664062	24.870605	47.312772
50.556641	15.493164	47.263329
50.964355	14.677734	47.218409
48.925781	19.570313	47.178817
47.294922	21.608887	47.142962
47.702637	24.055176	47.109427
44.848633	27.724609	47.077178
41.179199	32.617187	47.043835
34.655762	35.878906	47.005091
38.732910	44.440918	46.957910
40.771484	36.286621	46.903690
35.471191	30.986328	46.843556
35.471191	34.248047	46.775589
32.209473	35.471191	46.697967
28.132324	39.140625	46.608424
31.394043	35.471191	46.505453
27.724609	28.947754	46.389449
36.694336	13.046875	46.262409
35.471191	22.424316	46.128395
39.140625	30.986328	45.990540
42.810059	24.870605	45.851735
42.402344	29.763184	45.714952
39.956055	27.724609	45.580352
38.325195	24.870605	45.446155
39.140625	34.655762	45.311199
37.102051	36.286621	45.175125
35.471191	40.363770	45.036842
33.024902	34.655762	44.894559
35.878906	36.286621	44.747644
35.471191	32.617187	44.597210
42.402344	31.394043	44.445932
45.256348	35.063477	44.298291
42.402344	27.724609	44.156847
38.732910	11.008301	44.019754
36.286621	13.454590	43.883640
38.325195	12.231445	43.746890
35.471191	14.270020	43.609353
39.956055	19.162598	43.471426
47.702637	23.647461	43.336912
47.294922	28.132324	43.210939
48.110352	32.617187	43.095286
48.925781	41.179199	42.990144
53.818359	38.732910	42.897073
53.818359	30.986328	42.818411
49.333496	33.432617	42.753693
50.556641	35.471191	42.700321
48.110352	30.986328	42.656659
48.925781	25.686035	42.621563
59.118652	19.570313	42.597144
55.041504	19.162598	42.587443
59.934082	28.540039	42.593625
55.041504	23.647461	42.615176
55.449219	20.385742	42.650200
53.002930	26.501465	42.696336
54.633789	24.055176	42.752282
53.818359	22.424316	42.817535
55.041504	24.055176	42.891925
56.672363	31.801758	42.975818
56.264648	36.286621	43.069766
54.633789	33.432617	43.173000
50.964355	35.063477	43.283062
53.002930	28.947754	43.397708
54.633789	38.325195	43.517145
60.749512	34.248047	43.644029
54.633789	22.424316	43.779923
55.041504	8.154297	43.922778
59.934082	10.600586	44.072021
64.011230	10.600586	44.230954
64.826660	10.600586	44.402612
64.826660	23.239746	44.587739
61.564941	30.986328	44.784886
56.672363	26.909180	44.990302
57.487793	23.239746	45.200185
59.526367	29.763184	45.413790
56.672363	28.132324	45.631260
58.303223	33.024902	45.851654
57.080078	34.655762	46.074395
61.564941	38.732910	46.300107
65.234375	41.586914	46.531417
72.980957	31.801758	46.772968
72.980957	21.201172	47.029076
68.496094	11.823730	47.299671
60.749512	20.385742	47.579419
56.672363	19.162598	47.861293
59.526367	21.608887	48.141473
63.603516	24.462891	48.421241
64.011230	21.608887	48.703321
64.826660	23.239746	48.988811
62.788086	23.647461	49.277255
68.496094	31.801758	49.568861
65.642090	26.909180	49.864892
68.496094	28.540039	50.165586
61.564941	30.986328	50.469345
59.934082	33.432617	50.772390
63.195801	28.132324	51.072615
65.234375	25.686035	51.371653
65.642090	15.900879	51.671279
71.757812	11.008301	51.973506
71.757812	17.531738	52.281220
74.611816	20.385742	52.596206
73.388672	19.978027	52.918980
73.796387	25.278320	53.249065
71.757812	28.132324	53.585140
71.757812	32.617187	53.925617
75.019531	34.248047	54.270259
81.542969	50.964355	54.621944
82.766113	41.179199	54.984588
77.873535	35.471191	55.358383
68.903809	32.209473	55.737828
63.195801	37.509766	56.114769
67.680664	39.956055	56.484748
70.534668	22.832031	56.849298
69.719238	11.823730	57.210744
68.903809	7.746582	57.568955
69.719238	15.493164	57.923273
67.272949	24.055176	58.273073
71.757812	28.540039	58.618300
73.388672	38.325195	58.960940
70.942383	38.732910	59.302142
67.680664	32.617187	59.639900
66.457520	27.724609	59.971338
72.980957	36.694336	60.296607
73.388672	38.325195	60.618858
73.388672	39.140625	60.939818
70.942383	35.471191	61.258672
70.942383	24.462891	61.573895
81.135254	19.162598	61.887356
78.688965	14.270020	62.203518
77.873535	2.854004	62.523103
76.650391	-2.854004	62.844229
69.311523	6.931152	63.163704
73.388672	23.647461	63.478162
89.289551	32.209473	63.791889
97.036133	29.763184	64.116050
106.413574	26.501465	64.460541
117.829590	34.655762	64.834040
109.267578	37.509766	65.241052
99.482422	37.509766	65.675560
97.036133	26.909180	66.127829
102.336426	25.686035	66.594116
107.229004	27.724609	67.076723
116.198730	23.647461	67.580723
126.799316	9.377441	68.113398
139.438477	6.931152	68.684136
158.601074	12.231445	69.305070
174.909668	20.385742	69.990946
194.887695	26.909180	70.756950
194.887695	19.162598	71.613426
190.810547	21.608887	72.559552
212.419434	32.617187	73.593806
225.874023	33.024902	74.724923
235.659180	37.509766	75.962641
244.628906	41.179199	77.311861
254.821777	55.856934	78.776073
267.053223	57.487793	80.359452
283.361816	53.818359	82.068322
308.232422	53.002930	83.913516
331.472168	53.818359	85.910373
351.450195	50.556641	88.073912
360.012207	49.741211	90.413158
366.943359	36.286621	92.929258
394.260254	23.647461	95.624620
430.954590	12.639160	98.514100
436.662598	12.231445	101.613821
440.332031	19.570313	104.924599
450.932617	36.286621	108.439605
457.863770	45.256348	112.154244
466.018066	64.011230	116.064136
488.034668	71.350098	120.168212
513.312988	89.697266	124.473711
538.999023	88.066406	128.992793
549.191895	83.581543	133.733843
554.492187	65.642090	138.695317
559.384766	37.509766	143.868761
571.208496	33.024902	149.246202
584.663086	44.440918	154.823778
591.594238	58.710937	160.598553
602.194824	55.449219	166.565486
616.464844	70.534668	172.720738
613.610840	81.135254	179.058838
619.726562	79.912109	185.568699
621.357422	76.242676	192.238588
627.473145	67.680664	199.058315
638.073730	72.573242	206.020351
645.412598	84.804687	213.120035
641.743164	92.958984	220.349347
649.897461	83.173828	227.696958
659.274902	84.396973	235.155570
679.252930	95.812988	242.724634
680.068359	92.143555	250.404365
680.883789	94.997559	258.187569
686.591797	89.697266	266.063521
693.930664	91.735840	274.024884
702.084961	85.620117	282.066918
700.454102	79.504395	290.183303
680.883789	72.165527	298.358284
674.360352	71.350098	306.568193
674.360352	83.173828	314.794252
686.184082	92.958984	323.028478
693.115234	95.812988	331.269882
693.115234	91.328125	339.516226
697.600098	100.297852	347.761621
695.153809	107.229004	355.999158
700.861816	111.306152	364.221931
700.454102	111.306152	372.424218
695.153809	111.306152	380.598222
697.192383	112.121582	388.734279
696.376953	107.636719	396.825023
693.522949	112.121582	404.863365
687.407227	115.383301	412.839912
688.630371	128.022461	420.745442
691.892090	120.683594	428.574758
698.007813	112.937012	436.326730
707.385254	109.267578	444.003250
709.831543	114.975586	451.606846
699.230957	105.598145	459.133798
684.553223	99.074707	466.570886
686.591797	101.113281	473.904409
701.269531	108.452148	481.132424
688.222656	116.198730	488.256936
666.206055	123.537598	495.266369
665.798340	117.014160	502.143469
675.583496	114.975586	508.883581
679.660645	120.683594	515.491933
683.737793	117.829590	521.973336
676.806641	111.713867	528.328125
678.437500	106.821289	534.553218
679.660645	113.344727	540.647308
675.583496	117.014160	546.609928
682.106934	120.275879	552.440663
678.437500	128.430176	558.140755
674.360352	130.876465	563.708850
671.914062	136.584473	569.141328
664.982910	140.253906	574.434451
661.721191	137.807617	579.583831
662.536621	134.953613	584.587249
661.721191	134.545898	589.445421
666.613770	124.353027	594.160894
661.313477	123.129883	598.736143
664.982910	121.499023	603.172180
660.090332	123.945312	607.469902
657.236328	117.829590	611.628705
642.558594	112.937012	615.643873
647.858887	119.460449	619.510627
661.721191	123.129883	623.234199
653.566895	131.691895	626.823700
639.296875	136.992188	630.277040
629.511719	136.992188	633.584552
627.473145	140.661621	636.739944
630.327148	157.377930	639.743900
627.880859	160.639648	642.600449
626.250000	161.455078	645.312305
623.395996	148.815918	647.880925
623.803711	135.769043	650.308280
611.979980	135.769043	652.594579
615.649414	125.576172	654.738672
616.057129	124.760742	656.743678
617.687988	124.353027	658.615398
619.726562	125.576172	660.359407
621.357422	124.760742	661.981586
619.318848	128.430176	663.486607
614.426270	143.923340	664.876272
604.641113	154.523926	666.148669
607.902832	160.231934	667.302208
607.087402	161.047363	668.339990
611.979980	164.716797	669.267884
603.010254	159.824219	670.089895
596.486816	155.747070	670.804816
589.963379	153.300781	671.409251
584.663086	148.408203	671.901039
577.324219	141.884766	672.278340
575.285645	136.584473	672.540164
572.839355	137.399902	672.687826
568.354492	133.322754	672.723345
563.461914	134.953613	672.647482
555.715332	138.623047	672.459579
551.638184	147.592773	672.158486
557.346191	156.562500	671.746969
553.676758	161.455078	671.231430
558.161621	163.085937	670.617872
554.492187	170.832520	669.911812
551.638184	177.355957	669.116682
545.522461	166.755371	668.233285
541.853027	164.309082	667.261622
541.037598	163.493652	666.202965
534.921875	160.639648	665.059369
537.775879	158.601074	663.833208
536.960449	166.755371	662.529189
537.775879	161.862793	661.152748
539.814453	152.485352	659.709360
537.775879	151.262207	658.204327
525.952148	153.708496	656.638382
519.428711	150.854492	655.007469
521.467285	159.824219	653.310249
524.321289	170.424805	651.551615
516.166992	171.240234	649.736093
514.128418	173.278809	647.864097
505.566406	178.579102	645.934691
499.858398	165.532227	643.945971
500.673828	163.901367	641.897681
496.596680	167.978516	639.792530
493.742676	170.424805	637.632630
492.519531	174.501953	635.419838
493.742676	175.725098	633.157806
489.665527	174.501953	630.850391
491.704102	165.124512	628.500791
490.888672	167.163086	626.113171
492.111816	161.047363	623.692190
485.996094	170.424805	621.240727
481.511230	183.063965	618.758669
475.803223	181.025391	616.244548
468.872070	172.055664	613.696461
463.164063	174.501953	611.111984
455.417480	189.179687	608.488627
454.194336	185.102539	605.825018
452.155762	180.209961	603.122566
450.932617	179.394531	600.384158
448.486328	169.609375	597.612480
450.117187	167.570801	594.810773
443.186035	167.570801	591.981736
441.555176	173.686523	589.125938
435.847168	174.501953	586.243416
428.508301	183.063965	583.333054
429.323730	185.510254	580.394031
426.062012	185.510254	577.428377
424.023438	173.278809	574.438382
420.761719	159.416504	571.425503
416.684570	156.562500	568.390626
427.692871	165.124512	565.337827
432.585449	179.394531	562.277125
429.731445	171.240234	559.216805
424.431152	165.939941	556.158461
417.500000	170.424805	553.099861
411.791992	175.725098	550.037696
410.976562	176.540527	546.970314
409.753418	176.948242	543.898923
399.152832	168.793945	540.823291
397.929687	163.901367	537.740630
393.444824	160.231934	534.649893
399.152832	166.755371	531.553515
397.929687	172.055664	528.456504
400.375977	179.802246	525.363643
397.929687	177.763672	522.278314
388.552246	181.840820	519.200314
377.543945	183.471680	516.124082
379.990234	188.364258	513.045166
392.221680	187.548828	509.968531
394.260254	192.849121	506.904909
387.329102	188.771973	503.859393
379.990234	183.879395	500.829330
373.874512	184.287109	497.809919
372.651367	174.501953	494.798389
362.866211	158.601074	491.792728
363.681641	143.923340	488.790579
356.750488	147.185059	485.790975
356.342773	138.623047	482.793419
357.565918	136.176758	479.799253
355.935059	142.700195	476.811578
353.896484	152.077637	473.832167
349.819336	166.755371	470.861206
344.926758	174.501953	467.897471
348.188477	182.656250	464.940965
341.257324	172.463379	461.993073
337.995605	162.678223	459.052862
324.541016	160.639648	456.116004
328.210449	164.309082	453.178472
331.472168	168.386230	450.242633
328.210449	171.240234	447.313316
326.171875	168.386230	444.391911
317.609863	152.077637	441.476952
316.386719	148.815918	438.565856
317.609863	141.884766	435.658934
315.571289	135.361328	432.758839
313.532715	139.438477	429.867023
307.824707	141.884766	426.983044
299.262695	148.000488	424.103793
300.078125	146.777344	421.226298
293.962402	151.262207	418.350075
298.854980	156.970215	415.476376
296.816406	164.716797	412.608535
292.739258	169.609375	409.748441
289.069824	167.570801	406.895109
287.846680	163.085937	404.047909
287.846680	156.562500	401.207950
280.507812	148.815918	398.375637
283.769531	139.438477	395.550601
289.069824	149.631348	392.736660
298.854980	143.107910	389.942479
293.962402	134.545898	387.175347
291.516113	131.691895	384.436303
280.507812	133.322754	381.721490
280.915527	146.777344	379.026344
283.361816	155.339355	376.350770
278.061523	163.085937	373.696694
277.246094	156.562500	371.063573
280.915527	148.000488	368.452367
273.984375	139.438477	365.864721
269.499512	124.760742	363.298430
271.130371	120.275879	360.751475
267.053223	120.683594	358.224263
267.460937	129.245605	355.716948
264.606934	133.322754	353.229657
264.199219	140.661621	350.762597
262.568359	135.361328	348.316050
263.383789	138.623047	345.890909
265.422363	140.253906	343.489286
267.460937	139.438477	341.114462
267.460937	136.176758	338.769322
269.907227	140.253906	336.456165
264.606934	148.000488	334.175864
262.568359	140.253906	331.926650
253.598633	139.438477	329.704656
249.521484	126.799316	327.504666
254.821777	116.198730	325.324889
255.637207	108.452148	323.168626
254.821777	107.229004	321.038684
249.929199	99.482422	318.934609
256.452637	91.328125	316.856369
251.560059	101.520996	314.805834
250.744629	102.336426	312.782831
245.444336	105.598145	310.785134
245.444336	116.606445	308.810695
240.959473	119.052734	306.857965
239.328613	125.576172	304.925227
236.066895	130.468750	303.010714
235.659180	144.738770	301.113364
236.066895	141.477051	299.233428
231.174316	127.207031	297.370914
229.951172	121.091309	295.524206
225.874023	119.052734	293.691527
229.135742	116.198730	291.872563
227.097168	114.567871	290.068710
223.835449	106.821289	288.280108
214.050293	88.881836	286.503124
209.157715	99.074707	284.731818
208.750000	108.452148	282.962545
214.050293	123.537598	281.196965
211.604004	132.507324	279.438800
209.973145	114.975586	277.689241
200.595703	89.697266	275.945773
191.625977	94.997559	274.202241
196.518555	112.121582	272.454590
200.187988	111.306152	270.706020
194.887695	100.297852	268.960230
187.956543	102.744141	267.215289
185.102539	99.074707	265.467208
181.025391	95.812988	263.713574
178.986816	98.666992	261.953054
176.132812	89.697266	260.184919
175.317383	69.719238	258.409122
172.871094	69.311523	256.626056
172.871094	70.534668	254.836425
167.978516	72.573242	253.040477
167.978516	77.058105	251.237817
165.939941	81.135254	249.428822
164.309082	90.920410	247.614181
170.832520	105.190430	245.796376
167.570801	113.752441	243.979604
166.755371	101.113281	242.165513
159.416504	84.804687	240.352674
149.223633	91.735840	238.536188
156.970215	92.551270	236.712881
165.532227	89.697266	234.888620
170.832520	77.873535	233.073289
157.785645	66.865234	231.269998
151.262207	59.118652	229.472922
151.669922	57.080078	227.676918
145.961914	70.942383	225.880826
140.661621	81.135254	224.082255
135.769043	91.735840	222.277636
134.953613	86.843262	220.464963
132.507324	82.358398	218.644150
131.691895	80.319824	216.815764
136.176758	90.920410	214.982178
135.361328	99.890137	213.147481
141.069336	117.829590	211.315900
146.777344	118.645020	209.493504
137.399902	92.551270	207.683825
130.876465	85.620117	205.883049
137.399902	81.542969	204.088486
137.399902	80.727539	202.303455
133.322754	72.165527	200.530042
127.614746	59.526367	198.765942
124.353027	46.479492	197.007661
130.876465	43.625488	195.255282
138.623047	55.449219	193.514985
137.399902	66.865234	191.793514
125.576172	76.242676	190.090110
124.760742	79.504395	188.398997
126.799316	83.173828	186.718397
118.645020	69.719238	185.048314
115.791016	67.272949	183.385527
117.829590	70.534668	181.728347
121.499023	71.350098	180.079547
125.576172	68.496094	178.444014
120.275879	63.603516	176.824578
120.683594	57.080078	175.220607
114.975586	58.303223	173.630405
117.421875	61.564941	172.052772
117.829590	62.788086	170.488689
119.052734	60.749512	168.940362
120.275879	71.350098	167.409777
119.868164	79.504395	165.898594
120.683594	82.358398	164.407842
120.275879	82.358398	162.938378
113.752441	79.912109	161.489067
109.267578	71.350098	160.055805
104.782715	70.942383	158.634124
108.044434	61.564941	157.222315
105.190430	50.556641	155.821200
99.890137	41.179199	154.429732
96.220703	42.402344	153.044438
95.405273	40.771484	151.662958
94.589844	33.024902	150.284966
99.074707	43.625488	148.912286
94.997559	45.256348	147.547191
92.958984	42.810059	146.189273
91.328125	51.779785	144.837062
85.212402	46.887207	143.488723
77.873535	49.741211	142.139926
75.834961	44.848633	140.786113
78.688965	48.110352	139.426684
83.581543	42.810059	138.065570
79.912109	47.294922	136.706636
73.388672	56.264648	135.348853
67.680664	57.487793	133.987706
72.573242	59.118652	132.621350
66.457520	41.586914	131.250922
65.234375	40.363770	129.875796
66.865234	45.256348	128.495809
63.603516	63.603516	127.112312
66.865234	75.019531	125.726487
65.642090	69.311523	124.340433
63.195801	66.865234	122.955187
55.041504	52.595215	121.568420
47.702637	42.810059	120.174804
48.518066	42.810059	118.770329
46.887207	50.556641	117.355036
44.440918	40.363770	115.929617
44.033203	30.986328	114.494208
45.664062	31.801758	113.050340
40.771484	19.162598	111.599380
37.102051	27.316895	110.140067
39.956055	34.655762	108.671850
39.140625	44.033203	107.196996
44.848633	35.878906	105.719177
35.471191	22.424316	104.240400
31.394043	12.231445	102.757765
34.248047	11.008301	101.269149
32.209473	12.231445	99.776280
34.248047	7.746582	98.281134
26.909180	3.669434	96.783992
25.278320	5.708008	95.282769
21.608887	21.201172	93.775480
16.308594	22.832031	92.260234
19.570313	19.978027	90.736092
15.900879	17.531738	89.204417
19.570313	11.416016	87.667051
16.716309	2.854004	86.126083
26.501465	2.446289	84.585329
23.239746	6.931152	83.049934
22.424316	17.531738	81.521910
24.055176	23.239746	80.001673
16.308594	22.832031	78.489074
14.270020	6.523437	76.981179
9.377441	8.562012	75.474970
7.338867	8.562012	73.968310
6.523437	7.338867	72.460232
1.630859	16.308594	70.950137
4.484863	26.909180	69.437668
3.669434	15.493164	67.924521
3.669434	9.377441	66.412639
5.708008	14.270020	64.903873
4.077148	11.416016	63.400311
6.931152	7.746582	61.903726
7.746582	8.969727	60.416658
6.931152	4.484863	58.941203
9.785156	2.446289	57.478921
9.377441	9.377441	56.031930
14.677734	8.969727	54.602984
12.231445	-3.261719	53.194802
2.854004	-4.077148	51.805568
-2.854004	2.446289	50.428813
-2.446289	15.493164	49.060063
-6.523437	24.055176	47.698038
-2.446289	29.355469	46.342900
-3.261719	24.055176	44.996618
-2.446289	21.201172	43.661062
-5.708008	17.531738	42.336507
-5.708008	17.124023	41.022346
-8.154297	21.608887	39.717990
-14.270020	5.300293	38.421473
-14.270020	-1.630859	37.129948
-15.493164	-15.085449	35.842616
-16.308594	-11.823730	34.559784
-11.008301	-3.261719	33.283239
-18.347168	-2.446289	32.014679
-19.570313	4.484863	30.752291
-25.278320	15.900879	29.493051
-24.055176	32.209473	28.235142
-25.686035	33.024902	26.978540
-23.647461	32.617187	25.724506
-25.278320	9.377441	24.474455
-24.055176	11.823730	23.229521
-26.909180	11.416016	21.990243
-34.655762	0.000000	20.754456
-33.432617	-4.892578	19.518800
-37.509766	-8.969727	18.282106
-34.655762	-7.746582	17.044648
-32.209473	-11.823730	15.808833
-29.763184	-11.823730	14.578561
-31.801758	-8.969727	13.356268
-30.578613	-4.892578	12.142768
-33.024902	3.669434	10.938403
-44.440918	13.046875	9.740062
-48.110352	12.231445	8.541126
-54.633789	2.446289	7.336242
-53.818359	11.416016	6.122768
-47.294922	8.969727	4.902798
-48.925781	8.562012	3.681120
-45.256348	6.931152	2.460916
-48.925781	4.484863	1.243938
-53.002930	0.815430	0.029282
-53.818359	-4.892578	-1.185200
-53.410645	-11.008301	-2.399632
-53.002930	-22.424316	-3.612634
-58.303223	-12.639160	-4.824066
-55.449219	-11.008301	-6.034655
-51.372070	-7.746582	-7.241989
-51.372070	-3.261719	-8.442055
-55.041504	6.931152	-9.633814
-64.418945	12.231445	-10.820782
-68.088379	9.377441	-12.008783
-64.826660	8.562012	-13.200056
-68.903809	10.600586	-14.393523
-69.311523	12.639160	-15.589222
-70.942383	5.300293	-16.787509
-75.834961	-7.746582	-17.989258
-74.611816	-12.639160	-19.195726
-63.603516	-22.424316	-20.403182
-72.980957	-15.085449	-21.606673
-72.165527	-11.416016	-22.806932
-75.019531	-6.523437	-24.005631
-65.642090	-17.124023	-25.200402
-69.719238	-26.501465	-26.387062
-80.319824	-18.754883	-27.567196
-88.066406	-9.785156	-28.748533
-86.843262	-4.077148	-29.936311
-89.289551	-2.446289	-31.131026
-91.735840	4.484863	-32.332714
-90.920410	3.261719	-33.541510
-89.697266	2.854004	-34.755715
-86.843262	11.416016	-35.972201
-87.658691	3.261719	-37.187981
-84.804687	-6.523437	-38.400737
-88.474121	-8.969727	-39.609012
-86.435547	-7.338867	-40.812381
-87.658691	-12.639160	-42.010016
-81.135254	-12.231445	-43.199312
-84.396973	-14.677734	-44.377148
-88.474121	-13.046875	-45.543877
-87.250977	-11.823730	-46.701455
-83.173828	-12.639160	-47.848435
-83.581543	-1.630859	-48.981738
-79.096680	11.416016	-50.098758
-71.350098	14.677734	-51.194774
-75.834961	8.969727	-52.265516
-81.542969	3.669434	-53.312827
-90.920410	-4.484863	-54.343306
-93.366699	-17.531738	-55.363703
-93.774414	-26.501465	-56.377259
-91.328125	-19.978027	-57.383431
-83.173828	-18.347168	-58.378179
-88.474121	-21.608887	-59.357439
-83.173828	-19.570313	-60.320135
-87.658691	-21.201172	-61.265791
-87.658691	-25.278320	-62.195151
-90.512695	-6.523437	-63.109903
-92.551270	-4.077148	-64.011784
-96.628418	-4.484863	-64.903320
-97.036133	-6.931152	-65.786829
-95.812988	-3.261719	-66.662710
-99.482422	-13.454590	-67.530816
-101.520996	-9.785156	-68.392730
-97.443848	-5.708008	-69.248791
-96.220703	-10.600586	-70.096435
-89.697266	-4.484863	-70.931728
-89.289551	-5.708008	-71.750495
-87.658691	-21.201172	-72.550268
-93.366699	-36.286621	-73.331604
-97.036133	-27.316895	-74.098051
-95.812988	-19.570313	-74.852584
-99.482422	-15.900879	-75.596236
-106.413574	-8.154297	-76.332145
-100.297852	-11.416016	-77.062889
-100.297852	-12.639160	-77.786540
-101.113281	-9.377441	-78.501268
-104.375000	-1.630859	-79.208011
-110.898438	8.562012	-79.910031
-116.606445	11.416016	-80.612586
-121.091309	-7.746582	-81.320805
-121.906738	-33.432617	-82.037757
-121.499023	-35.063477	-82.763792
-111.306152	-23.239746	-83.495058
-108.044434	-16.716309	-84.224232
-106.413574	-24.462891	-84.945821
-102.744141	-30.578613	-85.656734
-115.383301	-28.947754	-86.357672
-123.129883	-15.085449	-87.056061
-127.207031	-7.746582	-87.759745
-125.576172	-6.523437	-88.471491
-120.275879	-3.261719	-89.189010
-119.052734	3.669434	-89.907751
-116.606445	15.085449	-90.624226
-121.091309	14.677734	-91.337356
-117.014160	15.900879	-92.047186
-115.383301	0.815430	-92.751729
-119.868164	-16.308594	-93.449732
-124.353027	-26.501465	-94.143865
-126.391602	-33.840332	-94.837645
-117.014160	-55.449219	-95.530143
-117.829590	-46.887207	-96.216513
-117.829590	-33.024902	-96.894278
-116.606445	-18.754883	-97.563006
-116.606445	-11.823730	-98.221763
-117.829590	-3.261719	-98.870309
-117.829590	0.815430	-99.509067
-118.645020	-2.854004	-100.138344
-122.722168	-8.154297	-100.759410
-126.799316	-7.338867	-101.375410
-128.837891	-9.785156	-101.989676
-133.322754	0.000000	-102.604960
-133.730469	1.223145	-103.223569
-128.837891	3.669434	-103.844810
-121.906738	1.630859	-104.463626
-120.683594	-6.931152	-105.074228
-117.421875	-18.754883	-105.673029
-120.275879	-31.394043	-106.258647
-119.868164	-23.239746	-106.831600
-116.606445	-20.385742	-107.391539
-115.383301	-22.424316	-107.936323
-116.198730	-10.600586	-108.464781
-115.791016	-12.639160	-108.977098
-114.567871	-17.124023	-109.473146
-115.383301	-11.008301	-109.952604
-112.121582	2.446289	-110.414972
-114.567871	0.000000	-110.859681
-111.306152	-4.077148	-111.286635
-110.898438	0.000000	-111.695013
-111.306152	-9.377441	-112.084262
-114.567871	-9.377441	-112.455806
-112.121582	-13.454590	-112.811233
-110.490723	-19.978027	-113.150044
-109.675293	-29.355469	-113.470922
-111.306152	-23.647461	-113.773914
-104.375000	-19.978027	-114.058334
-107.636719	-22.424316	-114.322369
-107.636719	-12.231445	-114.566558
-106.821289	-6.931152	-114.792186
-106.413574	-3.261719	-114.999321
-107.229004	-3.669434	-115.188370
-106.413574	3.261719	-115.360061
-107.636719	1.223145	-115.515107
-111.306152	7.746582	-115.655491
-113.752441	6.931152	-115.784623
-111.306152	-7.746582	-115.904483
-113.752441	-8.969727	-116.015365
-115.383301	-5.300293	-116.118630
-116.198730	-11.823730	-116.216229
-117.421875	-21.608887	-116.309495
-118.645020	-20.793457	-116.399703
-120.683594	-14.677734	-116.488397
-125.168457	-18.754883	-116.578122
-127.207031	-11.823730	-116.672166
-129.245605	-11.823730	-116.773017
-133.322754	-8.562012	-116.882940
-138.623047	-2.446289	-117.005477
-137.807617	4.484863	-117.143570
-137.807617	-1.223145	-117.297332
-139.030762	-0.407715	-117.465999
-125.576172	3.669434	-117.645827
-120.275879	1.630859	-117.827981
-116.606445	-5.708008	-118.004882
-116.198730	-12.639160	-118.173153
-117.014160	-4.077148	-118.332047
-124.760742	-1.223145	-118.484176
-132.915039	4.484863	-118.636114
-135.361328	4.077148	-118.794672
-139.030762	-3.669434	-118.963773
-142.700195	-8.562012	-119.146297
-145.554199	-10.600586	-119.345086
-145.554199	-4.484863	-119.561656
-140.661621	-2.446289	-119.794439
-139.438477	5.300293	-120.039564
-140.253906	3.261719	-120.294500
-134.953613	2.854004	-120.557250
-132.915039	0.407715	-120.824078
-135.361328	-3.669434	-121.092698
-136.992188	0.815430	-121.363924
-136.584473	-9.377441	-121.638745
-135.361328	-17.124023	-121.916604
-132.915039	-28.132324	-122.195677
-128.837891	-24.462891	-122.472940
-131.284180	-15.085449	-122.746040
-128.837891	-6.931152	-123.014452
-126.391602	-5.300293	-123.276819
-129.653320	3.669434	-123.532071
-131.284180	13.046875	-123.781759
-134.545898	7.746582	-124.028444
-142.700195	5.300293	-124.276288
-140.253906	-0.407715	-124.529475
-139.846191	1.630859	-124.788248
-134.545898	4.484863	-125.049831
-136.992188	-0.815430	-125.311574
-134.953613	0.000000	-125.572552
-135.769043	-7.746582	-125.832311
-131.691895	-18.754883	-126.089455
-136.584473	-38.732910	-126.343190
-133.730469	-27.724609	-126.594153
-128.837891	-12.639160	-126.840707
-130.468750	-8.154297	-127.079901
-132.915039	-6.931152	-127.312031
-134.953613	-7.746582	-127.539423
-133.730469	-3.669434	-127.763445
-135.769043	-1.223145	-127.984442
-136.584473	0.000000	-128.203283
-133.730469	5.300293	-128.420050
-134.953613	15.900879	-128.633646
-132.507324	8.969727	-128.843239
-132.915039	-2.854004	-129.047935
-140.253906	-12.639160	-129.249240
-135.769043	-16.716309	-129.449880
-132.915039	-19.570313	-129.648496
-132.099609	-16.716309	-129.842080
-123.945312	-19.978027	-130.027336
-125.168457	-14.677734	-130.200271
-128.837891	-9.785156	-130.360724
-129.653320	-6.523437	-130.511557
-132.099609	-13.046875	-130.655082
-134.545898	-11.416016	-130.793621
-136.992188	-0.815430	-130.929824
-140.661621	2.854004	-131.066548
-141.477051	-14.270020	-131.206408
-140.253906	-22.424316	-131.350187
-142.700195	-12.639160	-131.497770
-141.069336	-11.008301	-131.649366
-141.477051	0.000000	-131.804526
-139.846191	-1.630859	-131.962283
-139.846191	-13.046875	-132.121604
-136.176758	-17.531738	-132.280858
-135.769043	-8.969727	-132.437846
-134.953613	0.000000	-132.591114
-135.361328	0.407715	-132.740240
-135.769043	2.854004	-132.885363
-141.477051	-6.523437	-133.028332
-141.477051	-11.416016	-133.172201
-148.408203	-11.008301	-133.320097
-141.477051	2.446289	-133.473504
-143.515625	2.446289	-133.630726
-140.253906	8.562012	-133.789818
-136.992188	4.484863	-133.948493
-147.185059	4.077148	-134.106710
-148.408203	2.446289	-134.269144
-154.931641	-1.223145	-134.440466
-152.485352	-8.969727	-134.623200
-152.485352	-18.754883	-134.817064
-143.923340	-20.385742	-135.018460
-145.146484	-24.870605	-135.222658
-139.438477	-24.055176	-135.426209
-149.631348	-22.832031	-135.628929
-153.300781	-7.338867	-135.835462
-150.446777	-6.931152	-136.049275
-147.185059	-6.931152	-136.268421
-140.661621	-0.815430	-136.488250
-135.361328	-3.261719	-136.702824
-137.807617	4.077148	-136.908300
-148.815918	4.484863	-137.107660
-151.262207	-4.484863	-137.308039
-150.854492	-4.484863	-137.513251
-149.631348	-11.823730	-137.722968
-154.931641	-20.793457	-137.937408
-152.485352	-26.501465	-138.157953
-151.669922	-11.416016	-138.383988
-149.631348	-4.077148	-138.613418
-144.738770	-13.454590	-138.843280
-141.069336	-5.708008	-139.069242
-141.477051	-9.785156	-139.288138
-143.107910	-6.523437	-139.499735
-146.777344	2.446289	-139.706071
-144.738770	8.154297	-139.908988
-140.661621	-3.261719	-140.107250
-139.846191	2.854004	-140.297967
-138.623047	-6.523437	-140.479460
-135.769043	-15.900879	-140.650350
-139.438477	7.746582	-140.810080
-141.884766	19.978027	-140.960810
-143.515625	12.231445	-141.105467
-134.953613	-13.454590	-141.243424
-136.992188	-18.754883	-141.371305
-133.730469	-19.570313	-141.487397
-132.915039	-19.978027	-141.590721
-135.769043	-15.900879	-141.681211
-132.915039	-9.785156	-141.759888
-131.691895	-6.931152	-141.826135
-133.730469	-0.407715	-141.879589
-137.807617	5.708008	-141.922593
-134.953613	7.746582	-141.957504
-132.915039	7.746582	-141.983687
-131.691895	3.669434	-141.999370
-133.730469	-2.854004	-142.004368
-131.691895	3.261719	-141.999375
-126.799316	2.854004	-141.983027
-121.499023	2.446289	-141.951359
-125.168457	-3.261719	-141.901992
-123.537598	-4.077148	-141.835887
-123.945312	-10.600586	-141.754086
-127.207031	-13.454590	-141.658028
-134.953613	-3.669434	-141.552317
-132.507324	-5.708008	-141.441785
-139.438477	-3.261719	-141.329337
-135.361328	8.154297	-141.217106
-131.284180	12.231445	-141.103808
-130.876465	4.484863	-140.986289
-131.284180	2.854004	-140.863687
-135.361328	5.300293	-140.737539
-134.953613	0.407715	-140.610280
-130.876465	-0.407715	-140.481879
-131.284180	-8.969727	-140.350382
-129.653320	-16.308594	-140.214782
-128.837891	-31.394043	-140.074444
-129.653320	-23.239746	-139.929086
-129.245605	-22.424316	-139.779196
-125.576172	-15.085449	-139.624173
-123.945312	-11.823730	-139.461950
-121.906738	-11.008301	-139.290666
-130.876465	-11.416016	-139.111769
-139.846191	-7.746582	-138.932325
-141.884766	2.854004	-138.760153
-145.554199	-2.446289	-138.599493
-146.777344	-6.931152	-138.452779
-143.923340	-4.484863	-138.320389
-145.554199	-8.154297	-138.201063
-141.069336	-4.484863	-138.093265
-132.099609	-3.261719	-137.992300
-126.391602	-4.077148	-137.890575
-130.876465	-23.239746	-137.784055
-136.584473	-30.986328	-137.675425
-135.769043	-23.647461	-137.568857
-130.468750	-20.385742	-137.464049
-132.099609	-8.969727	-137.358461
-140.253906	3.261719	-137.253845
-138.623047	-3.669434	-137.154552
-137.807617	-5.708008	-137.061515
-133.322754	-4.892578	-136.972514
-134.953613	-4.484863	-136.885317
-136.992188	-4.892578	-136.800150
-143.107910	-0.815430	-136.720114
-143.107910	-2.854004	-136.648810
-136.992188	5.708008	-136.585918
-131.284180	4.892578	-136.526410
-131.284180	-1.223145	-136.465589
-132.915039	-15.493164	-136.402509
-125.576172	-23.647461	-136.336266
-125.576172	-24.870605	-136.263646
-129.245605	-13.454590	-136.184051
-128.022461	0.815430	-136.099487
-127.207031	-4.077148	-136.010376
-131.284180	-6.931152	-135.917337
-129.245605	-6.931152	-135.822039
-121.906738	-5.300293	-135.722757
-120.683594	-8.969727	-135.615063
-120.275879	-4.484863	-135.496775
-121.499023	1.630859	-135.368281
-123.945312	-3.261719	-135.231358
-130.468750	-1.630859	-135.089851
-127.207031	0.407715	-134.947331
-126.391602	-7.746582	-134.803778
-123.945312	-11.008301	-134.657463
-127.207031	-9.377441	-134.508022
-125.168457	-11.823730	-134.356288
-127.207031	-9.377441	-134.202847
-128.022461	-9.785156	-134.048686
-121.091309	-5.708008	-133.893145
-123.945312	7.746582	-133.733770
-127.207031	14.270020	-133.571439
-122.722168	18.347168	-133.407741
-128.837891	7.746582	-133.243018
-124.353027	5.300293	-133.078346
-121.906738	8.562012	-132.912503
-115.383301	4.892578	-132.741540
-123.129883	4.077148	-132.563833
-121.091309	3.669434	-132.381696
-121.906738	0.000000	-132.196698
-119.460449	-7.746582	-132.008414
-117.014160	-3.261719	-131.815477
-121.091309	-4.077148	-131.617444
-127.207031	-4.484863	-131.417859
-121.499023	-6.523437	-131.219788
-116.606445	-8.154297	-131.020693
-111.713867	-6.523437	-130.815473
-110.490723	0.407715	-130.600446
-109.267578	14.270020	-130.374032
-112.121582	17.124023	-130.136771
-117.014160	13.046875	-129.891867
-114.567871	15.900879	-129.642601
-119.460449	2.854004	-129.390719
-112.937012	-1.223145	-129.136817
-107.636719	0.815430	-128.877720
-102.744141	-3.261719	-128.608152
-101.113281	-12.639160	-128.324479
-97.443848	-11.008301	-128.024532
-99.890137	-11.823730	-127.707651
-99.482422	-5.708008	-127.375150
-92.551270	6.523437	-127.026694
-97.443848	12.231445	-126.660908
-97.443848	12.639160	-126.279713
-99.890137	13.046875	-125.886134
-100.705566	16.308594	-125.482646
-102.744141	14.677734	-125.071728
-103.559570	14.677734	-124.655648
-102.744141	14.677734	-124.235828
-101.113281	3.261719	-123.812234
-101.520996	0.000000	-123.384519
-99.074707	-2.446289	-122.952463
-102.744141	-4.892578	-122.516502
-101.520996	-14.677734	-122.078235
-96.220703	-7.746582	-121.637156
-99.482422	-8.154297	-121.191606
-96.628418	-4.892578	-120.741829
-97.851562	7.746582	-120.288166
-94.589844	8.969727	-119.830307
-103.559570	12.231445	-119.369888
-101.520996	7.746582	-118.910826
-105.598145	1.630859	-118.455901
-109.267578	-4.077148	-118.007973
-103.151855	-11.416016	-117.568588
-96.628418	-14.677734	-117.133857
-92.551270	-18.754883	-116.697922
-97.036133	-19.570313	-116.258618
-100.297852	-22.424316	-115.818701
-99.482422	-29.355469	-115.381339
-101.113281	-20.385742	-114.947732
-101.520996	-12.639160	-114.518916
-99.890137	-4.077148	-114.095337
-97.851562	-4.892578	-113.675920
-101.928711	6.931152	-113.260487
-102.744141	11.416016	-112.851115
-102.744141	19.570313	-112.449459
-101.928711	19.978027	-112.055591
-105.190430	21.201172	-111.670002
-103.559570	22.424316	-111.293791
-103.559570	16.716309	-110.926929
-103.559570	12.231445	-110.568950
-101.928711	-0.815430	-110.219399
-104.375000	-9.785156	-109.878047
-104.782715	-11.008301	-109.545845
-109.267578	-4.892578	-109.224763
-110.490723	-0.407715	-108.917418
-101.520996	7.338867	-108.622976
-102.744141	3.261719	-108.337091
-99.482422	-0.407715	-108.057105
-103.559570	-3.669434	-107.782725
-101.928711	-7.338867	-107.514842
-104.375000	-2.446289	-107.254298
-97.443848	2.854004	-107.000072
-92.551270	13.046875	-106.747860
-87.658691	15.900879	-106.492159
-87.250977	20.385742	-106.229435
-88.066406	25.686035	-105.958995
-90.920410	15.900879	-105.682544
-86.843262	-2.854004	-105.401288
-88.474121	-15.493164	-105.114777
-94.589844	-16.716309	-104.824941
-96.628418	-16.308594	-104.536413
-99.074707	-4.892578	-104.252758
-96.628418	0.407715	-103.975230
-101.928711	-0.815430	-103.704593
-99.890137	5.708008	-103.442425
-97.443848	11.416016	-103.188298
-97.443848	15.493164	-102.940293
-92.143555	18.347168	-102.696358
-87.658691	20.385742	-102.452603
-86.843262	20.385742	-102.205312
-89.697266	10.600586	-101.954049
-97.036133	0.815430	-101.702471
-101.928711	0.407715	-101.456748
-99.890137	4.077148	-101.220834
-97.443848	2.854004	-100.994105
-92.551270	-2.446289	-100.773277
-94.997559	-14.270020	-100.555743
-92.551270	-20.385742	-100.340942
-92.143555	-14.677734	-100.128225
-97.036133	-8.969727	-99.918149
-91.735840	3.669434	-99.711886
-92.143555	9.785156	-99.508089
-92.551270	9.785156	-99.305788
-90.512695	13.454590	-99.104915
-94.589844	25.686035	-98.905722
-98.666992	21.608887	-98.711020
-93.366699	10.600586	-98.522631
-90.920410	10.600586	-98.338111
-86.843262	4.484863	-98.153729
-85.212402	10.600586	-97.966461
-92.143555	4.484863	-97.776527
-92.551270	-0.815430	-97.587566
-95.812988	-5.708008	-97.402626
-87.658691	4.077148	-97.221397
-88.474121	5.300293	-97.040688
-91.328125	0.815430	-96.859703
-89.289551	0.815430	-96.679820
-94.589844	-3.261719	-96.502252
-92.551270	-1.630859	-96.328792
-90.512695	12.639160	-96.159223
-82.766113	18.347168	-95.989906
-88.474121	14.677734	-95.817900
-90.920410	14.270020	-95.645116
-96.628418	11.008301	-95.476053
-97.443848	6.931152	-95.314576
-97.443848	3.669434	-95.162440
-87.250977	-4.892578	-95.016918
-83.989258	-11.823730	-94.871650
-86.843262	-19.978027	-94.723137
-86.435547	-8.562012	-94.572216
-85.212402	-6.931152	-94.419371
-85.620117	-6.523437	-94.264206
-87.250977	3.669434	-94.107310
-88.474121	5.300293	-93.950213
-89.289551	1.630859	-93.794373
-90.512695	4.892578	-93.640969
-88.066406	11.823730	-93.490265
-87.250977	13.046875	-93.341119
-90.920410	19.978027	-93.193510
-96.628418	14.677734	-93.050737
-99.482422	1.630859	-92.917444
-93.366699	-2.446289	-92.794732
-89.289551	4.484863	-92.678717
-87.658691	0.407715	-92.565041
-88.474121	-8.969727	-92.452003
-81.542969	-5.708008	-92.337873
-82.766113	-1.223145	-92.219713
-90.920410	-4.892578	-92.098795
-88.474121	-0.407715	-91.979334
-86.843262	1.630859	-91.861817
-93.366699	8.969727	-91.746493
-95.405273	8.562012	-91.636920
-95.812988	9.377441	-91.535843
-97.851562	4.077148	-91.444269
-94.589844	9.785156	-91.362185
-93.366699	14.270020	-91.287748
-97.851562	8.562012	-91.220367
-93.366699	11.823730	-91.160651
-89.697266	6.931152	-91.106173
-87.658691	5.708008	-91.053112
-86.843262	3.669434	-90.999210
-83.989258	-0.815430	-90.942848
-77.873535	-2.446289	-90.880876
-79.912109	5.300293	-90.810187
-81.542969	14.270020	-90.731144
-81.135254	7.746582	-90.645491
-81.542969	4.077148	-90.553942
-80.319824	5.300293	-90.456644
-80.727539	11.823730	-90.353532
-77.873535	9.785156	-90.244122
-74.611816	17.124023	-90.126563
-73.388672	17.531738	-89.998565
-72.573242	9.785156	-89.859021
-73.796387	-3.261719	-89.708173
-79.096680	-5.708008	-89.548512
-79.912109	0.000000	-89.383925
-70.534668	8.969727	-89.214167
-70.534668	17.124023	-89.034936
-65.234375	9.377441	-88.842996
-60.749512	-6.523437	-88.635160
-65.234375	-2.854004	-88.409798
-71.350098	3.669434	-88.170725
-75.019531	19.978027	-87.924167
-83.581543	14.677734	-87.676508
-80.727539	3.261719	-87.432770
-81.542969	0.000000	-87.193995
-79.096680	7.746582	-86.959245
-72.573242	6.523437	-86.725799
-75.834961	0.000000	-86.490632
-80.727539	-5.708008	-86.255353
-75.834961	-3.261719	-86.022356
-75.427246	-7.338867	-85.790391
-76.242676	-9.785156	-85.558370
-75.834961	-7.746582	-85.326752
-79.912109	-8.969727	-85.096834
-75.834961	-9.377441	-84.869746
-77.465820	-2.854004	-84.644953
-74.611816	-2.854004	-84.421625
-75.834961	-1.223145	-84.199180
-75.834961	8.562012	-83.977705
-71.757812	24.870605	-83.756639
-73.388672	22.424316	-83.534482
-72.165527	16.716309	-83.310981
-69.311523	8.154297	-83.085468
-68.496094	0.000000	-82.856236
-68.088379	2.854004	-82.622410
-68.903809	6.931152	-82.384230
-73.796387	0.407715	-82.143748
-79.912109	-8.154297	-81.905714
-79.912109	-11.008301	-81.674765
-79.096680	-15.493164	-81.452215
-73.388672	-12.639160	-81.235989
-68.496094	7.338867	-81.021529
-75.834961	8.562012	-80.806840
-72.573242	-3.669434	-80.593870
-64.011230	-2.446289	-80.380730
-60.341797	8.154297	-80.161334
-69.719238	6.931152	-79.934481
-81.542969	8.969727	-79.707816
-76.650391	3.669434	-79.488960
-82.766113	-1.223145	-79.279930
-72.980957	1.630859	-79.079858
-72.980957	1.630859	-78.885014
-69.719238	-2.854004	-78.691939
-72.165527	-12.639160	-78.499684
-67.272949	-11.008301	-78.307558
-65.642090	1.630859	-78.113399
-68.496094	15.900879	-77.916113
-68.088379	19.162598	-77.717011
-67.272949	11.416016	-77.516707
-68.903809	11.416016	-77.315358
-67.272949	16.308594	-77.113438
-61.157227	21.201172	-76.909150
-60.341797	11.416016	-76.698960
-62.380371	8.154297	-76.481856
-67.272949	19.162598	-76.260523
-64.826660	18.347168	-76.037848
-59.118652	16.308594	-75.812626
-56.264648	15.493164	-75.580818
-55.449219	14.677734	-75.339754
-64.011230	7.338867	-75.091176
-63.195801	12.639160	-74.839756
-57.487793	15.493164	-74.586209
-58.303223	13.046875	-74.327899
-59.118652	18.347168	-74.064456
-59.118652	19.162598	-73.797032
-61.564941	21.201172	-73.526945
-63.603516	25.686035	-73.256420
-63.195801	34.655762	-72.987369
-64.418945	27.724609	-72.720649
-61.564941	29.763184	-72.456221
-59.526367	32.209473	-72.192546
-57.080078	21.608887	-71.927402
-59.118652	19.162598	-71.659851
-62.788086	22.424316	-71.391674
-63.195801	19.978027	-71.125752
-64.011230	2.854004	-70.863655
-55.856934	2.854004	-70.603878
-52.595215	-2.854004	-70.341662
-49.741211	-4.077148	-70.072788
-50.556641	-0.815430	-69.795698
-54.633789	7.746582	-69.511806
-56.264648	23.647461	-69.224502
-59.526367	28.947754	-68.937027
-54.633789	40.363770	-68.650549
-58.710937	39.548340	-68.364681
-64.011230	38.732910	-68.081944
-68.088379	28.540039	-67.807420
-68.088379	16.716309	-67.544560
-69.719238	1.630859	-67.294611
-69.719238	-1.630859	-67.058107
-66.457520	-12.639160	-66.834260
-70.534668	-21.608887	-66.622088
-68.903809	-18.754883	-66.422142
-67.272949	-14.270020	-66.233864
-69.311523	-7.746582	-66.056173
-75.019531	0.000000	-65.890919
-75.427246	9.377441	-65.741353
-70.942383	6.931152	-65.607456
-72.980957	8.154297	-65.486946
-70.942383	12.639160	-65.378700
-75.834961	13.046875	-65.283026
-81.542969	5.300293	-65.202989
-79.504395	-2.446289	-65.141713
-83.989258	-8.562012	-65.100019
-82.358398	-11.823730	-65.078456
-83.173828	-8.969727	-65.076669
-80.727539	-15.900879	-65.093122
-77.058105	-24.462891	-65.124937
-79.912109	-11.008301	-65.169562
-77.873535	-3.261719	-65.226370
-80.319824	-0.815430	-65.295072
-80.727539	2.854004	-65.375912
-76.242676	-2.446289	-65.467934
-81.542969	-2.854004	-65.569679
-82.358398	3.669434	-65.682419
-82.358398	12.639160	-65.807359
-83.173828	6.931152	-65.944242
-87.250977	-2.854004	-66.093884
-90.920410	-4.077148	-66.258868
-97.443848	-6.523437	-66.443039
-95.812988	-5.708008	-66.649297
-97.443848	-6.523437	-66.877710
-93.774414	-1.223145	-67.126497
-94.997559	-6.523437	-67.393296
-97.443848	-1.630859	-67.677332
-95.405273	-4.484863	-67.978597
-94.997559	-5.300293	-68.295457
-99.890137	-2.854004	-68.627409
-104.782715	-7.746582	-68.977168
-108.044434	-4.892578	-69.348273
-110.898438	1.223145	-69.743114
-109.267578	10.600586	-70.162130
-114.567871	12.231445	-70.605070
-112.937012	17.124023	-71.072311
-116.606445	15.900879	-71.563762
-117.421875	11.416016	-72.079522
-115.383301	14.677734	-72.618806
-114.567871	23.239746	-73.178908
-110.490723	21.608887	-73.756263
-116.198730	19.162598	-74.348625
-119.460449	11.416016	-74.957476
-121.906738	-4.484863	-75.585286
-128.837891	-13.454590	-76.234497
-136.992188	-7.338867	-76.909885
-145.554199	-17.124023	-77.617908
-154.931641	-28.132324	-78.365445
-156.970215	-24.462891	-79.157633
-155.339355	-16.716309	-79.994722
-160.231934	-21.201172	-80.874762
-163.493652	-33.024902	-81.797880
-164.309082	-48.110352	-82.764368
-166.755371	-58.303223	-83.773172
-169.201660	-48.925781	-84.823457
-169.609375	-50.556641	-85.914275
-170.017090	-56.264648	-87.043607
-173.686523	-60.341797	-88.209806
-176.948242	-53.410645	-89.412868
-182.656250	-57.080078	-90.654035
-185.917969	-60.341797	-91.934989
-190.810547	-61.564941	-93.257080
-195.295410	-67.272949	-94.621659
-196.926270	-75.834961	-96.029438
-197.333984	-76.242676	-97.479121
