51.372070	44.033203	30.954339
49.741211	43.625488	30.980883
39.140625	22.832031	31.023580
31.801758	11.416016	31.073728
23.647461	31.801758	31.122154
8.562012	49.741211	31.158712
4.484863	37.509766	31.172761
0.000000	33.432617	31.158023
4.077148	28.540039	31.113464
12.231445	17.531738	31.043586
19.162598	24.870605	30.956786
24.462891	33.432617	30.861098
21.608887	43.217773	30.760881
23.647461	40.771484	30.656875
29.355469	35.063477	30.551179
30.578613	37.509766	30.447839
26.501465	46.479492	30.347927
21.201172	38.325195	30.248179
23.647461	21.201172	30.145480
36.694336	18.347168	30.043391
34.248047	19.570313	29.948847
28.132324	23.647461	29.862141
17.124023	19.162598	29.776260
7.746582	19.978027	29.681406
9.377441	12.639160	29.570693
21.608887	11.823730	29.446563
34.655762	24.870605	29.320038
25.278320	26.501465	29.198961
24.870605	27.724609	29.081607
31.801758	39.548340	28.967075
23.239746	37.102051	28.856641
19.162598	19.162598	28.746487
21.201172	19.978027	28.632861
26.909180	25.686035	28.517538
22.424316	20.793457	28.403074
24.462891	11.416016	28.289229
31.801758	6.931152	28.177913
34.248047	4.077148	28.074165
33.432617	4.484863	27.980748
24.462891	13.046875	27.895151
26.909180	17.124023	27.812824
19.162598	20.793457	27.730602
20.793457	28.132324	27.645565
20.793457	30.578613	27.556754
22.424316	41.179199	27.465289
33.024902	40.363770	27.375028
33.024902	39.956055	27.292009
18.754883	28.540039	27.215027
12.639160	24.055176	27.134786
24.055176	18.754883	27.047555
33.432617	24.870605	26.960597
31.394043	25.686035	26.881381
22.424316	25.686035	26.808676
26.909180	18.347168	26.738192
25.278320	4.077148	26.669476
24.462891	20.793457	26.602626
15.493164	33.432617	26.534415
3.669434	43.217773	26.456943
8.562012	42.810059	26.363429
9.785156	34.248047	26.254484
8.969727	30.578613	26.132635
8.562012	43.625488	25.998380
7.746582	59.118652	25.851780
26.501465	53.818359	25.697941
25.278320	48.518066	25.546668
8.154297	33.024902	25.397792
9.377441	17.124023	25.242362
8.969727	22.424316	25.076877
9.785156	25.686035	24.902288
16.308594	15.900879	24.721224
14.677734	0.815430	24.537384
8.562012	0.000000	24.350336
14.677734	9.785156	24.158388
26.909180	23.239746	23.966782
18.754883	27.724609	23.781595
9.377441	25.686035	23.599196
9.377441	8.154297	23.412583
21.608887	-10.600586	23.222891
29.763184	19.978027	23.039028
38.325195	47.294922	22.870669
37.102051	45.664062	22.723607
32.617187	39.548340	22.597461
30.986328	23.239746	22.488309
27.724609	19.162598	22.392604
25.278320	15.085449	22.307052
34.248047	11.008301	22.231498
27.316895	18.347168	22.167817
24.055176	31.801758	22.113397
13.454590	27.724609	22.061554
5.708008	11.823730	22.003767
9.377441	17.531738	21.934474
9.377441	30.578613	21.854163
12.231445	38.325195	21.765131
13.454590	27.316895	21.669687
21.608887	18.347168	21.571757
32.209473	15.900879	21.478946
33.432617	24.462891	21.399153
37.102051	41.179199	21.336262
34.248047	39.956055	21.291073
34.248047	27.724609	21.262297
25.686035	20.385742	21.246219
17.124023	27.724609	21.235536
8.154297	28.540039	21.220909
12.231445	20.793457	21.196643
10.600586	19.978027	21.162557
2.854004	23.647461	21.117310
3.261719	31.394043	21.057066
8.562012	43.625488	20.982138
15.900879	44.033203	20.898091
19.978027	41.586914	20.811744
20.385742	42.810059	20.727471
21.608887	52.187500	20.646871
19.570313	35.878906	20.570077
11.008301	35.878906	20.493999
11.416016	28.132324	20.413758
14.270020	19.162598	20.328341
13.454590	14.677734	20.239464
0.407715	25.686035	20.144273
-2.446289	31.801758	20.035334
1.630859	35.878906	19.909530
13.046875	36.286621	19.772149
24.462891	37.509766	19.633925
26.909180	42.810059	19.504683
31.394043	45.256348	19.389614
20.793457	44.033203	19.288409
8.969727	29.763184	19.193051
9.785156	26.909180	19.094591
15.493164	26.501465	18.992097
20.793457	39.956055	18.890463
21.201172	38.732910	18.794149
9.785156	32.617187	18.701623
6.931152	36.694336	18.606169
5.300293	35.471191	18.503095
6.931152	34.655762	18.391675
10.600586	20.793457	18.273797
18.754883	14.270020	18.154376
17.124023	24.462891	18.038428
16.308594	27.724609	17.926986
17.124023	38.732910	17.819323
11.823730	33.024902	17.714201
14.270020	28.947754	17.609688
15.493164	19.570313	17.506080
12.639160	31.394043	17.403981
12.639160	41.179199	17.302252
13.046875	39.956055	17.200340
17.531738	35.063477	17.099752
17.531738	24.870605	17.002999
13.454590	21.201172	16.910114
10.600586	5.708008	16.818128
13.046875	11.416016	16.725170
9.377441	24.055176	16.630953
-0.815430	40.363770	16.531670
-5.300293	51.372070	16.420157
-7.746582	32.617187	16.291411
-0.815430	24.055176	16.145703
10.600586	26.909180	15.989955
6.523437	30.986328	15.831531
5.300293	39.548340	15.671255
17.531738	44.848633	15.510879
12.639160	30.986328	15.355395
19.162598	25.686035	15.207102
18.347168	31.801758	15.067756
5.708008	37.102051	14.935065
5.300293	35.878906	14.801905
15.085449	41.179199	14.667472
14.677734	44.440918	14.536892
14.677734	29.355469	14.412485
14.677734	14.270020	14.293993
9.377441	9.785156	14.179882
-1.223145	26.501465	14.064503
-3.261719	33.432617	13.940538
-0.815430	35.063477	13.805293
-3.261719	35.471191	13.659529
2.446289	29.355469	13.504732
6.931152	41.179199	13.345008
9.377441	39.548340	13.185247
11.416016	55.856934	13.028617
16.716309	53.818359	12.878247
11.823730	32.617187	12.736046
11.008301	12.639160	12.600401
35.878906	41.179199	12.475977
44.848633	38.732910	12.377606
39.956055	36.694336	12.314169
44.033203	26.909180	12.285008
40.363770	24.870605	12.288493
39.548340	25.278320	12.322070
33.024902	30.986328	12.381234
22.832031	28.947754	12.458445
20.385742	31.801758	12.545091
19.570313	30.986328	12.636479
15.900879	24.870605	12.730262
15.085449	22.424316	12.823876
20.385742	33.432617	12.917231
26.909180	44.848633	13.014525
31.394043	34.655762	13.121474
39.956055	22.424316	13.243848
29.763184	19.162598	13.383818
33.024902	28.132324	13.538190
26.501465	45.256348	13.703473
25.686035	45.256348	13.876213
26.909180	40.363770	14.054070
23.647461	32.617187	14.236197
20.385742	19.978027	14.419960
18.347168	17.531738	14.601986
11.823730	16.716309	14.778521
4.484863	8.562012	14.943738
3.669434	10.600586	15.092191
9.377441	21.608887	15.223629
16.308594	27.724609	15.343290
20.385742	32.209473	15.457793
17.124023	29.763184	15.570357
21.608887	34.655762	15.681488
19.978027	32.617187	15.792205
18.347168	35.878906	15.902303
15.493164	40.771484	16.009660
19.570313	28.132324	16.113431
23.647461	30.986328	16.216131
18.754883	25.686035	16.319630
18.347168	28.132324	16.422176
20.793457	22.424316	16.522847
21.201172	25.686035	16.622909
19.570313	24.055176	16.722712
22.424316	32.617187	16.822162
36.286621	47.294922	16.925884
41.179199	37.509766	17.042893
46.479492	34.248047	17.180069
49.741211	44.033203	17.341279
41.586914	46.479492	17.526230
34.248047	33.432617	17.728296
32.617187	23.239746	17.940064
28.540039	21.201172	18.157014
37.509766	28.540039	18.378472
44.033203	28.947754	18.609353
44.440918	33.432617	18.854881
42.402344	25.278320	19.115524
25.686035	13.454590	19.384970
12.231445	21.608887	19.649684
7.338867	29.763184	19.896857
8.562012	44.440918	20.121241
11.416016	36.694336	20.323740
9.785156	28.947754	20.506525
14.270020	24.055176	20.671368
18.347168	35.471191	20.821908
32.209473	43.625488	20.965597
39.140625	39.140625	21.112768
40.363770	42.402344	21.270714
41.179199	30.986328	21.441458
30.578613	38.732910	21.622205
26.909180	47.294922	21.805994
28.132324	34.655762	21.988102
20.385742	24.462891	22.166058
16.308594	11.008301	22.335043
23.647461	9.377441	22.493037
23.647461	11.008301	22.643158
24.462891	25.278320	22.787745
27.316895	28.132324	22.928076
27.316895	35.878906	23.065910
22.832031	39.956055	23.200787
17.531738	49.741211	23.328950
9.377441	48.518066	23.444465
17.531738	35.471191	23.544248
27.316895	38.732910	23.633621
37.102051	37.509766	23.722813
42.810059	38.732910	23.820952
35.878906	35.878906	23.931276
26.501465	33.432617	24.048513
20.385742	28.947754	24.163871
25.686035	31.394043	24.273031
22.424316	22.424316	24.376480
24.055176	21.608887	24.474475
22.832031	23.239746	24.566839
24.462891	26.909180	24.653945
29.763184	28.947754	24.737867
25.278320	24.055176	24.820696
25.278320	41.179199	24.901431
28.132324	53.410645	24.979653
28.540039	44.033203	25.057001
31.394043	40.363770	25.135146
32.209473	23.239746	25.215791
31.394043	19.978027	25.299702
35.878906	23.647461	25.387607
35.878906	24.870605	25.481374
32.209473	16.308594	25.580853
22.832031	12.231445	25.681291
17.531738	7.746582	25.775254
19.570313	14.270020	25.858225
18.754883	29.355469	25.930080
16.308594	35.063477	25.990711
11.008301	38.325195	26.037671
11.416016	28.947754	26.068211
17.124023	33.024902	26.083363
26.501465	38.325195	26.089379
36.694336	29.355469	26.095769
40.363770	39.548340	26.111292
47.702637	46.479492	26.142052
43.625488	37.509766	26.191074
36.694336	24.870605	26.255444
30.986328	19.978027	26.328187
23.647461	19.162598	26.402101
13.046875	18.754883	26.468913
12.231445	13.046875	26.521165
16.716309	8.562012	26.557427
12.231445	12.639160	26.579349
3.261719	22.424316	26.584023
-3.261719	36.694336	26.564622
1.223145	35.063477	26.517652
9.377441	29.355469	26.447196
21.201172	23.239746	26.362960
22.424316	29.355469	26.274333
27.316895	33.432617	26.186641
29.355469	28.540039	26.103360
28.540039	15.085449	26.026520
30.578613	5.708008	25.956553
33.024902	-1.223145	25.894720
28.540039	-6.931152	25.841361
23.647461	-2.446289	25.793148
22.424316	0.815430	25.745828
21.201172	-2.446289	25.697163
20.385742	2.446289	25.646087
16.716309	12.231445	25.591047
19.162598	21.201172	25.530783
18.754883	21.608887	25.465809
16.308594	26.909180	25.396192
12.639160	32.209473	25.319859
14.270020	27.724609	25.235054
21.201172	32.617187	25.143962
24.870605	29.355469	25.051998
29.355469	22.424316	24.964224
24.462891	13.046875	24.882579
23.647461	9.377441	24.805264
21.201172	11.416016	24.729807
15.493164	10.600586	24.653205
11.416016	19.162598	24.570877
9.377441	24.870605	24.478993
9.785156	34.655762	24.376047
12.639160	38.732910	24.263078
18.754883	19.978027	24.143870
15.493164	11.416016	24.021938
26.909180	23.647461	23.900425
28.540039	34.248047	23.785010
21.608887	23.239746	23.677572
18.754883	25.686035	23.573899
15.900879	28.540039	23.469861
16.716309	21.608887	23.363548
15.493164	17.531738	23.254532
9.785156	17.531738	23.141123
13.454590	19.162598	23.021282
21.201172	20.385742	22.897891
25.278320	24.462891	22.777344
32.209473	24.055176	22.665637
39.548340	28.132324	22.569127
43.217773	41.586914	22.493868
37.102051	47.294922	22.441224
35.471191	38.732910	22.407549
37.102051	38.732910	22.389983
37.102051	44.440918	22.388243
34.655762	46.479492	22.401400
33.024902	50.556641	22.427052
28.132324	47.294922	22.461820
34.248047	33.024902	22.503863
36.694336	34.655762	22.555377
39.548340	27.724609	22.619520
35.471191	17.124023	22.696724
19.162598	15.085449	22.780639
21.201172	25.686035	22.861770
19.978027	34.655762	22.936623
19.570313	26.909180	23.005189
23.647461	30.578613	23.068217
25.278320	39.140625	23.128355
23.239746	45.256348	23.187063
26.501465	43.625488	23.244559
25.686035	41.586914	23.301801
27.316895	28.132324	23.359596
31.394043	25.686035	23.419573
38.325195	36.286621	23.485962
32.209473	28.132324	23.561507
31.394043	15.900879	23.644108
23.647461	7.338867	23.729289
15.900879	0.000000	23.810524
5.708008	7.746582	23.879124
-2.446289	13.046875	23.926058
0.000000	21.201172	23.945939
8.969727	17.531738	23.941471
15.493164	15.900879	23.920832
18.347168	24.462891	23.891308
19.978027	29.763184	23.856975
16.308594	28.947754	23.818731
21.608887	32.617187	23.776684
31.394043	35.471191	23.735442
44.033203	41.179199	23.704867
41.179199	33.432617	23.692967
41.586914	19.570313	23.700837
38.325195	7.746582	23.726180
31.394043	0.000000	23.764751
21.201172	-1.630859	23.808734
6.931152	-3.261719	23.846912
1.630859	-1.630859	23.867943
2.446289	-3.261719	23.866262
10.600586	2.446289	23.844077
14.677734	21.201172	23.807911
21.201172	37.102051	23.764433
19.570313	47.702637	23.718090
20.385742	37.509766	23.670131
15.900879	24.055176	23.619502
16.308594	20.385742	23.564342
19.162598	33.432617	23.504700
22.424316	46.887207	23.443305
20.385742	36.694336	23.382229
28.132324	23.239746	23.323343
28.540039	3.669434	23.270250
28.132324	-4.484863	23.224886
18.754883	-11.008301	23.184378
13.454590	-1.223145	23.142123
9.785156	2.446289	23.092031
4.077148	15.493164	23.029691
15.493164	26.909180	22.954760
16.716309	29.355469	22.872707
16.308594	27.724609	22.787475
12.231445	16.308594	22.698333
10.600586	14.270020	22.602875
12.639160	12.639160	22.500094
13.046875	26.909180	22.391182
21.201172	40.363770	22.279421
24.462891	35.063477	22.170306
22.832031	38.732910	22.067260
21.201172	22.832031	21.969686
17.531738	14.677734	21.875191
16.308594	11.416016	21.781056
14.677734	14.677734	21.685330
15.900879	19.162598	21.587328
14.270020	21.201172	21.487042
7.746582	35.471191	21.382432
6.931152	37.509766	21.269733
7.746582	33.432617	21.147504
12.231445	27.724609	21.017696
21.608887	24.462891	20.885823
25.278320	23.239746	20.759186
22.832031	25.686035	20.641429
24.870605	30.986328	20.532489
24.462891	23.239746	20.432400
30.578613	19.570313	20.342796
25.278320	25.686035	20.265009
27.316895	24.870605	20.197941
20.793457	29.355469	20.139145
24.055176	38.732910	20.086270
24.055176	17.531738	20.039105
19.570313	7.746582	19.997119
13.454590	15.493164	19.956158
11.008301	23.647461	19.911186
18.754883	37.509766	19.861575
19.570313	44.848633	19.811228
19.570313	41.179199	19.762695
17.531738	21.608887	19.715624
22.424316	16.308594	19.670211
16.716309	25.686035	19.626966
12.231445	27.724609	19.582944
17.124023	18.754883	19.535654
14.677734	6.931152	19.486046
17.124023	6.931152	19.434919
16.308594	11.416016	19.382823
13.454590	15.085449	19.329323
7.338867	17.124023	19.271217
9.377441	19.162598	19.205348
13.454590	28.540039	19.132672
19.978027	25.686035	19.057966
27.316895	20.385742	18.987827
24.055176	14.677734	18.926832
13.046875	21.201172	18.871956
17.531738	11.416016	18.817515
17.531738	12.231445	18.763012
18.754883	15.900879	18.710006
20.793457	19.162598	18.659663
25.278320	24.462891	18.614487
18.754883	22.424316	18.575467
8.562012	16.308594	18.537441
0.815430	15.493164	18.491298
-1.630859	17.124023	18.430066
8.154297	7.338867	18.353743
15.493164	8.969727	18.269518
17.531738	19.162598	18.184800
22.424316	31.394043	18.103984
23.239746	34.248047	18.030300
26.501465	30.986328	17.966070
29.763184	25.278320	17.913720
27.316895	24.870605	17.874693
26.909180	26.909180	17.847892
24.462891	27.316895	17.831291
27.316895	25.686035	17.823802
21.201172	19.978027	17.824272
16.308594	12.231445	17.828590
16.308594	5.300293	17.832400
12.639160	-1.223145	17.833472
17.531738	5.708008	17.831288
19.978027	4.077148	17.828244
19.978027	7.338867	17.826955
16.308594	9.377441	17.827021
17.531738	16.308594	17.826774
18.754883	27.316895	17.826227
14.677734	33.432617	17.825289
14.677734	28.540039	17.822157
18.754883	28.132324	17.816934
18.754883	25.686035	17.811863
21.608887	19.162598	17.808761
27.316895	16.308594	17.810543
26.909180	18.347168	17.820627
25.686035	21.608887	17.839589
24.870605	15.085449	17.866044
17.124023	-5.300293	17.896839
15.085449	-8.969727	17.926926
5.300293	-8.154297	17.950629
-0.815430	-2.854004	17.960930
-4.892578	11.008301	17.951570
-1.223145	28.540039	17.920666
2.854004	35.063477	17.871153
15.493164	24.870605	17.810355
24.055176	16.308594	17.748805
40.771484	13.454590	17.698813
44.848633	19.162598	17.672009
44.033203	16.716309	17.673691
39.548340	26.909180	17.702030
35.471191	28.947754	17.752148
29.355469	22.424316	17.818077
23.239746	11.008301	17.893141
25.686035	2.854004	17.972671
27.316895	0.000000	18.056488
28.540039	5.300293	18.146131
23.647461	11.416016	18.241026
6.523437	8.562012	18.334088
0.000000	19.162598	18.413309
-2.446289	24.870605	18.470663
4.077148	30.986328	18.505795
4.077148	24.462891	18.522461
7.338867	14.677734	18.524050
11.008301	21.608887	18.513921
15.493164	20.385742	18.496579
27.316895	18.754883	18.478795
32.209473	12.231445	18.469283
31.394043	12.231445	18.473139
33.024902	20.793457	18.491041
26.501465	23.239746	18.521260
21.201172	26.909180	18.558817
20.385742	19.570313	18.598626
15.493164	22.424316	18.637439
12.639160	21.201172	18.671724
16.716309	19.978027	18.699938
19.570313	25.686035	18.724467
20.793457	37.509766	18.748346
24.462891	26.909180	18.773934
28.540039	27.316895	18.804447
41.179199	31.801758	18.846056
48.925781	28.947754	18.907962
38.732910	26.501465	18.993891
29.355469	28.947754	19.096881
16.308594	15.493164	19.205020
7.338867	-2.446289	19.306286
5.300293	-8.154297	19.392209
15.900879	0.815430	19.462752
23.647461	8.154297	19.525606
25.278320	21.201172	19.588336
23.239746	26.501465	19.653239
22.832031	27.724609	19.719397
28.947754	40.363770	19.787542
28.132324	42.810059	19.860403
22.424316	39.548340	19.937370
18.754883	34.655762	20.013997
24.870605	35.471191	20.088400
28.132324	36.694336	20.163706
30.986328	32.209473	20.243865
26.909180	23.239746	20.329860
30.578613	19.162598	20.420906
29.763184	25.686035	20.517321
25.686035	19.162598	20.618226
16.716309	13.454590	20.718598
7.746582	7.338867	20.810216
5.300293	9.377441	20.885670
8.562012	15.900879	20.942828
15.493164	22.424316	20.985350
23.647461	24.870605	21.020496
27.316895	27.724609	21.055632
34.248047	32.209473	21.096611
32.209473	34.248047	21.147196
24.870605	35.063477	21.205720
26.501465	29.763184	21.267800
31.801758	27.724609	21.333529
30.578613	35.878906	21.405566
26.909180	26.909180	21.483335
21.201172	8.562012	21.562745
18.754883	0.407715	21.639034
24.462891	3.261719	21.710978
19.570313	4.077148	21.779768
21.201172	11.008301	21.844834
24.055176	19.162598	21.906595
19.162598	34.655762	21.965781
22.424316	38.732910	22.021482
22.832031	41.586914	22.074332
12.639160	44.033203	22.122799
5.708008	26.909180	22.159961
8.562012	22.424316	22.180723
12.639160	20.385742	22.186556
26.909180	19.162598	22.184770
19.162598	24.055176	22.182245
29.355469	27.724609	22.181375
24.055176	18.754883	22.184012
23.647461	11.416016	22.189781
17.531738	9.377441	22.195321
6.931152	17.124023	22.194531
1.630859	20.385742	22.179132
-3.669434	25.278320	22.142839
0.815430	29.763184	22.083639
9.377441	42.402344	22.005845
19.570313	39.548340	21.918735
31.394043	45.664062	21.833533
28.132324	43.217773	21.758275
34.248047	39.548340	21.695588
31.394043	31.394043	21.646574
29.763184	24.055176	21.610346
25.686035	18.754883	21.583683
27.316895	20.793457	21.564038
28.540039	22.424316	21.551221
28.540039	27.316895	21.546007
24.462891	27.724609	21.547308
18.754883	23.239746	21.551184
20.385742	22.424316	21.553875
19.162598	28.947754	21.554466
23.647461	27.316895	21.554017
28.947754	34.655762	21.556002
32.617187	39.548340	21.565236
39.956055	42.402344	21.586628
34.248047	41.586914	21.622925
33.432617	41.179199	21.672129
26.501465	35.063477	21.729854
20.385742	41.179199	21.790191
17.531738	40.363770	21.847175
16.308594	38.325195	21.897470
24.870605	26.909180	21.942185
20.793457	27.316895	21.984630
10.600586	26.909180	22.022294
-1.223145	27.316895	22.045821
-7.338867	22.424316	22.045332
2.446289	33.432617	22.018166
12.639160	41.179199	21.971773
19.570313	40.363770	21.916820
25.278320	38.732910	21.861569
33.024902	44.440918	21.812948
31.394043	51.779785	21.775848
43.217773	48.110352	21.754069
39.548340	33.432617	21.751761
41.179199	26.909180	21.769649
39.140625	21.201172	21.806158
28.132324	23.647461	21.856870
26.501465	16.716309	21.914341
21.201172	17.531738	21.973065
15.900879	24.055176	22.028316
15.900879	25.686035	22.076017
20.385742	30.578613	22.116247
26.501465	40.363770	22.153264
38.325195	39.548340	22.194671
35.471191	36.694336	22.247296
34.248047	31.801758	22.311860
37.102051	33.024902	22.387111
37.102051	33.432617	22.473664
37.102051	36.286621	22.571666
39.548340	24.462891	22.681137
43.217773	23.239746	22.803693
41.179199	26.909180	22.940646
33.024902	14.270020	23.088950
27.316895	12.231445	23.241618
17.531738	19.162598	23.390578
8.562012	24.462891	23.526847
2.854004	19.570313	23.642073
6.931152	17.124023	23.732805
14.677734	33.024902	23.802735
17.531738	29.763184	23.858623
22.424316	27.724609	23.905866
30.578613	27.724609	23.950268
35.471191	28.540039	23.998767
34.248047	21.201172	24.055515
29.763184	24.055176	24.119546
18.754883	14.270020	24.184891
15.493164	8.969727	24.243605
15.900879	5.300293	24.291427
21.201172	11.008301	24.329551
23.647461	20.385742	24.361911
25.278320	18.347168	24.391839
21.201172	21.608887	24.419844
11.416016	17.124023	24.441698
12.231445	7.746582	24.451659
17.124023	16.308594	24.449400
20.793457	23.239746	24.439225
23.647461	34.655762	24.425465
32.617187	34.655762	24.413119
35.063477	31.801758	24.408238
38.325195	29.763184	24.414989
38.325195	24.870605	24.435194
42.402344	24.055176	24.470148
38.732910	25.686035	24.520327
35.063477	19.978027	24.583165
32.209473	12.639160	24.654383
29.355469	11.416016	24.730311
34.655762	10.600586	24.809801
23.239746	6.931152	24.891644
20.793457	4.484863	24.970399
20.385742	0.000000	25.041731
21.201172	8.562012	25.105260
21.608887	9.377441	25.161701
24.870605	16.716309	25.212601
25.278320	32.209473	25.260086
28.540039	38.732910	25.306187
30.986328	28.540039	25.353384
41.179199	26.909180	25.406395
41.586914	19.162598	25.471008
34.248047	6.931152	25.547591
36.694336	7.746582	25.632417
32.209473	14.270020	25.723201
25.278320	5.300293	25.816044
24.870605	-3.261719	25.905829
21.201172	-7.746582	25.989601
13.046875	-1.223145	26.063368
6.523437	9.377441	26.120543
6.931152	19.978027	26.156356
13.454590	19.978027	26.171952
14.270020	25.278320	26.171979
15.900879	25.278320	26.159712
25.686035	14.677734	26.139365
31.394043	6.931152	26.118392
29.763184	9.377441	26.101985
37.102051	16.308594	26.092524
39.956055	24.870605	26.093883
42.402344	13.046875	26.109638
42.402344	9.785156	26.141157
39.140625	3.261719	26.187477
32.617187	1.223145	26.244452
24.870605	7.746582	26.305220
22.424316	6.931152	26.363119
15.493164	7.746582	26.413078
13.454590	17.124023	26.450584
15.900879	25.686035	26.473913
19.570313	30.986328	26.485396
13.454590	30.578613	26.486523
15.900879	39.140625	26.476155
27.724609	32.617187	26.457607
28.540039	18.347168	26.438340
30.578613	6.523437	26.422475
33.024902	5.300293	26.411804
34.655762	16.716309	26.408350
29.763184	25.686035	26.412006
23.239746	21.201172	26.418588
16.716309	11.008301	26.421532
12.231445	7.338867	26.414681
10.600586	1.630859	26.393986
10.600586	11.823730	26.358063
14.270020	24.055176	26.308174
19.162598	26.909180	26.248218
22.832031	28.132324	26.183213
19.570313	29.763184	26.115811
17.124023	31.801758	26.044800
24.055176	19.162598	25.970096
26.501465	27.724609	25.895587
28.132324	32.617187	25.824877
31.394043	29.355469	25.760224
20.385742	18.347168	25.700672
12.231445	11.823730	25.638983
17.531738	10.600586	25.569537
20.385742	4.484863	25.494148
21.201172	5.708008	25.416273
22.424316	17.124023	25.337604
22.424316	19.570313	25.259118
20.385742	32.209473	25.180674
16.308594	28.540039	25.100211
23.647461	27.724609	25.017155
33.432617	27.316895	24.937067
34.655762	24.870605	24.867284
35.878906	18.347168	24.810949
30.578613	24.055176	24.767083
27.316895	27.724609	24.731847
29.355469	23.647461	24.702316
31.801758	25.686035	24.679120
37.102051	26.909180	24.665208
35.878906	18.754883	24.663281
25.278320	17.124023	24.670764
21.201172	8.969727	24.680259
18.754883	12.639160	24.686096
20.385742	16.308594	24.686508
17.531738	14.270020	24.681204
19.570313	13.046875	24.669913
22.832031	15.085449	24.654097
26.501465	22.424316	24.637190
31.394043	15.493164	24.623330
32.209473	15.493164	24.616140
30.578613	16.716309	24.616613
23.647461	16.308594	24.621937
27.316895	13.046875	24.628779
29.355469	9.785156	24.637709
31.394043	17.124023	24.651190
27.316895	25.686035	24.669539
28.132324	32.617187	24.691124
20.385742	37.102051	24.713098
15.493164	28.947754	24.730278
15.493164	25.278320	24.738259
22.424316	28.132324	24.737985
28.540039	23.239746	24.735078
26.501465	18.754883	24.734159
23.647461	31.801758	24.734924
26.909180	37.509766	24.736119
25.686035	31.801758	24.738364
33.432617	27.724609	24.743860
36.286621	31.801758	24.756951
36.286621	27.724609	24.780815
33.024902	17.531738	24.814829
28.132324	17.531738	24.855501
23.647461	14.677734	24.897880
21.201172	5.300293	24.937561
17.124023	4.077148	24.971089
14.270020	1.630859	24.995173
15.085449	1.630859	25.007861
20.385742	10.600586	25.010726
22.424316	19.978027	25.007744
23.239746	24.055176	25.001862
30.986328	27.724609	24.996215
28.947754	31.801758	24.994548
34.248047	22.424316	24.999038
29.763184	28.947754	25.010473
38.325195	28.132324	25.029811
34.248047	23.239746	25.058922
35.063477	26.501465	25.097656
28.540039	23.239746	25.143177
29.355469	16.308594	25.192133
24.870605	5.708008	25.241853
23.647461	4.892578	25.289787
25.278320	7.746582	25.334573
26.909180	12.231445	25.377270
25.278320	20.385742	25.418785
24.055176	32.617187	25.458379
20.385742	28.132324	25.494061
21.201172	35.878906	25.523937
21.201172	35.063477	25.547703
22.424316	31.801758	25.566146
19.570313	30.986328	25.579381
19.978027	25.686035	25.586559
24.055176	15.493164	25.588483
26.501465	12.639160	25.588280
25.686035	14.270020	25.588188
21.201172	9.377441	25.587240
12.639160	6.931152	25.580655
2.854004	19.570313	25.560449
4.077148	22.424316	25.520191
8.969727	23.647461	25.460191
11.008301	28.132324	25.384831
15.493164	30.986328	25.298424
18.347168	32.617187	25.205200
34.655762	43.217773	25.112529
38.325195	52.187500	25.030764
44.848633	45.256348	24.967424
43.217773	33.432617	24.925702
41.179199	33.432617	24.904983
39.956055	31.394043	24.902518
40.363770	27.316895	24.916411
44.848633	19.570313	24.946977
43.625488	10.600586	24.995570
38.325195	11.416016	25.060465
35.063477	13.454590	25.136893
34.248047	12.231445	25.220931
31.394043	16.308594	25.310111
24.055176	28.947754	25.400464
27.724609	48.925781	25.488201
29.355469	52.595215	25.573777
30.578613	48.925781	25.659341
37.509766	51.372070	25.747697
38.325195	49.333496	25.842801
39.548340	48.110352	25.946819
32.209473	34.248047	26.058166
30.578613	19.978027	26.172431
21.201172	17.124023	26.284112
14.270020	18.347168	26.386035
9.377441	19.978027	26.471144
9.377441	17.124023	26.535720
11.008301	24.462891	26.579769
10.600586	26.909180	26.604925
15.493164	29.763184	26.613516
14.677734	30.986328	26.608534
9.785156	36.694336	26.590171
12.639160	38.732910	26.557017
24.462891	31.394043	26.513097
27.316895	33.432617	26.466656
30.578613	29.763184	26.423321
28.540039	27.724609	26.384923
29.355469	27.316895	26.351279
28.132324	26.501465	26.321781
23.239746	26.909180	26.294558
19.978027	19.978027	26.265788
20.385742	13.454590	26.232678
26.909180	8.969727	26.196531
30.986328	13.046875	26.162128
30.578613	13.454590	26.133175
24.055176	29.763184	26.108599
20.385742	45.256348	26.083728
17.124023	44.033203	26.054105
15.493164	41.586914	26.016869
15.493164	36.286621	25.970690
17.531738	40.771484	25.916131
23.647461	35.471191	25.856304
28.540039	38.732910	25.796547
37.102051	37.102051	25.743344
35.063477	30.986328	25.701702
33.024902	21.201172	25.671784
32.209473	19.162598	25.651270
27.724609	9.377441	25.637612
19.978027	0.000000	25.625909
20.385742	8.154297	25.610944
17.124023	12.231445	25.590203
17.531738	21.201172	25.562470
20.385742	23.239746	25.528198
27.316895	27.724609	25.491146
29.763184	48.110352	25.456514
29.763184	55.041504	25.427333
29.355469	46.479492	25.403924
27.316895	19.978027	25.385299
21.201172	15.493164	25.368477
19.570313	12.231445	25.349216
24.055176	12.639160	25.326362
30.578613	14.677734	25.303744
35.878906	23.647461	25.287372
36.286621	35.063477	25.281586
35.063477	34.248047	25.287197
26.501465	22.424316	25.300898
15.493164	1.630859	25.314598
3.669434	-4.892578	25.317142
1.630859	9.377441	25.299395
11.416016	25.686035	25.260689
22.832031	33.024902	25.209618
34.248047	41.586914	25.158362
37.102051	35.878906	25.116731
45.664062	17.124023	25.091080
48.518066	13.046875	25.086709
44.848633	20.793457	25.105442
40.771484	29.763184	25.143965
33.024902	32.209473	25.196199
31.394043	35.063477	25.255899
25.278320	25.686035	25.318165
19.978027	15.900879	25.377782
20.793457	20.793457	25.430630
15.900879	19.570313	25.474711
16.308594	19.978027	25.508128
17.531738	15.493164	25.530578
23.647461	19.162598	25.544891
24.462891	26.909180	25.555169
30.578613	37.509766	25.565227
35.471191	42.402344	25.579775
33.432617	35.878906	25.602237
27.724609	37.509766	25.630944
30.578613	31.801758	25.662800
24.462891	27.724609	25.696022
23.647461	21.201172	25.727834
19.570313	20.385742	25.755163
13.046875	23.239746	25.774111
15.493164	20.385742	25.781184
21.201172	28.947754	25.777983
26.909180	28.947754	25.770118
32.617187	33.024902	25.763807
33.432617	38.325195	25.763697
34.248047	43.217773	25.771651
33.024902	44.440918	25.787615
37.102051	42.810059	25.811853
39.548340	47.294922	25.846427
40.771484	45.256348	25.893510
38.325195	51.372070	25.953130
41.586914	48.110352	26.024547
44.440918	43.625488	26.108973
37.102051	39.140625	26.206158
22.424316	25.686035	26.308460
15.085449	13.046875	26.403973
19.978027	18.754883	26.486478
14.677734	30.578613	26.555729
7.338867	29.763184	26.608825
4.077148	28.132324	26.640338
10.600586	32.209473	26.649285
13.454590	36.694336	26.639999
21.608887	42.402344	26.618672
27.724609	44.440918	26.592512
36.286621	55.856934	26.569369
39.956055	53.818359	26.556201
38.325195	48.925781	26.556316
32.617187	52.187500	26.567722
27.316895	48.925781	26.585074
29.355469	44.440918	26.604337
28.132324	38.732910	26.624761
29.355469	35.471191	26.646486
32.209473	19.978027	26.670502
35.471191	19.978027	26.699356
34.248047	19.162598	26.734942
33.024902	4.484863	26.776810
34.248047	5.300293	26.823988
32.209473	15.493164	26.875973
26.501465	33.024902	26.930242
18.347168	41.179199	26.980959
18.754883	48.925781	27.022555
27.316895	42.810059	27.055721
44.848633	39.956055	27.090015
55.449219	35.878906	27.139594
61.564941	30.986328	27.215494
55.856934	28.132324	27.320942
51.779785	24.870605	27.452025
47.294922	17.124023	27.602623
46.887207	18.347168	27.768160
48.518066	37.509766	27.946820
47.294922	44.440918	28.138250
51.372070	45.256348	28.342528
53.818359	55.856934	28.561318
42.810059	48.925781	28.793199
35.063477	32.209473	29.030157
43.217773	29.763184	29.266895
49.333496	43.217773	29.507028
61.564941	41.179199	29.758720
76.650391	42.810059	30.033176
83.581543	41.179199	30.342037
72.573242	39.140625	30.688132
68.496094	28.947754	31.064375
66.865234	25.278320	31.463543
75.427246	21.201172	31.884500
86.435547	21.201172	32.332777
96.220703	36.286621	32.817267
93.774414	37.102051	33.343213
100.297852	27.316895	33.911180
122.722168	24.055176	34.527343
119.052734	25.278320	35.201402
119.460449	35.878906	35.934095
134.545898	48.110352	36.725208
150.446777	58.710937	37.583473
161.455078	55.041504	38.520152
167.978516	55.449219	39.542384
183.879395	52.187500	40.655712
205.488281	49.741211	41.870583
214.865723	51.779785	43.199112
213.642578	48.925781	44.645036
220.573730	45.256348	46.205156
231.989746	27.724609	47.878977
245.444336	23.239746	49.670942
253.190918	24.055176	51.585916
266.645508	34.655762	53.627452
269.907227	42.402344	55.797631
272.761230	29.763184	58.094339
285.808105	12.639160	60.515214
309.455566	15.085449	63.065903
325.356445	28.947754	65.757869
345.742187	24.870605	68.601805
360.419922	18.754883	71.606578
373.466797	8.969727	74.778236
373.874512	6.931152	78.116703
371.835937	0.000000	81.614017
372.243652	-4.892578	85.258448
372.651367	-6.523437	89.039287
377.136230	-11.008301	92.947879
377.543945	-12.639160	96.976899
373.466797	-16.716309	101.116978
374.689941	-11.823730	105.357018
371.835937	6.931152	109.686858
377.951660	12.231445	114.098307
376.728516	8.562012	118.585172
383.251953	0.815430	123.142001
382.844238	2.854004	127.763834
375.505371	0.407715	132.442439
371.835937	-3.261719	137.165402
360.012207	0.000000	141.918789
349.411621	-8.562012	146.686265
339.626465	-11.008301	151.450937
333.918457	-8.562012	156.198501
327.395020	-8.562012	160.917461
322.094727	-14.677734	165.597834
315.163574	-17.124023	170.230133
306.601562	-19.978027	174.804386
300.893555	-18.754883	179.310599
295.185547	-11.008301	183.740371
284.584961	8.969727	188.085230
273.576660	16.308594	192.334497
269.091797	18.754883	196.478292
267.460937	22.832031	200.511365
263.383789	28.540039	204.431389
257.675781	29.763184	208.235298
255.229492	28.540039	211.919644
245.444336	11.416016	215.480618
233.212891	0.000000	218.911073
220.166016	-18.347168	222.200894
208.342285	-28.947754	225.339824
209.973145	-29.763184	228.322191
204.265137	-19.570313	231.148208
197.741699	-14.677734	233.817705
177.763672	-3.261719	236.324796
165.124512	5.300293	238.658676
153.708496	5.708008	240.809854
148.408203	7.746582	242.773638
145.146484	8.562012	244.549816
145.146484	22.424316	246.141918
142.700195	19.570313	247.555111
145.961914	15.900879	248.795590
142.700195	0.000000	249.870091
136.584473	-16.716309	250.782544
130.876465	-16.308594	251.533763
125.576172	-5.708008	252.124268
116.606445	-1.223145	252.554080
109.675293	-4.892578	252.822103
103.151855	-6.523437	252.927677
94.997559	-13.454590	252.870660
88.881836	-8.969727	252.650877
87.658691	-8.969727	252.270258
86.435547	-13.046875	251.733919
81.135254	-7.746582	251.047126
78.688965	-5.708008	250.213668
73.796387	4.077148	249.237104
67.680664	11.008301	248.120126
74.611816	14.677734	246.867592
69.311523	15.900879	245.487603
64.418945	7.746582	243.985137
55.856934	-0.815430	242.361110
47.294922	-18.347168	240.614703
42.402344	-28.540039	238.745266
33.432617	-33.840332	236.753160
34.655762	-25.278320	234.640362
29.763184	-16.716309	232.411563
30.578613	-4.484863	230.072324
27.724609	-1.630859	227.628503
24.055176	-3.669434	225.085156
14.270020	0.000000	222.444219
8.969727	8.562012	219.705391
14.270020	12.231445	216.872023
6.931152	7.746582	213.950841
6.931152	12.231445	210.946430
4.484863	4.892578	207.863148
1.630859	-6.523437	204.705774
0.407715	-24.462891	201.478519
-2.854004	-35.878906	198.185692
-9.377441	-34.655762	194.829975
-15.085449	-26.909180	191.411961
-19.978027	-21.201172	187.932067
-22.832031	-12.639160	184.391933
-26.909180	-14.677734	180.794154
-31.801758	-11.823730	177.140945
-30.986328	-4.892578	173.435228
-32.617187	-6.523437	169.681993
-29.355469	-0.815430	165.887549
-22.832031	2.854004	162.060751
-24.870605	5.300293	158.210833
-24.462891	12.231445	154.343639
-25.278320	8.154297	150.463480
-26.909180	0.815430	146.574270
-30.986328	-7.338867	142.678363
-34.655762	-18.754883	138.776624
-46.479492	-19.570313	134.867310
-56.264648	-18.754883	130.945127
-54.633789	-16.716309	127.006961
-51.779785	-22.424316	123.056709
-55.449219	-17.531738	119.100035
-52.595215	-14.677734	115.140958
-43.625488	-10.600586	111.186640
-38.732910	-1.630859	107.247766
-31.801758	0.815430	103.334523
-36.286621	-6.523437	99.453610
-31.801758	-3.261719	95.608283
-36.694336	5.708008	91.800863
-33.432617	-2.446289	88.033096
-35.063477	-9.785156	84.307146
-33.432617	-13.046875	80.625460
-35.471191	-20.385742	76.989795
-45.664062	-33.840332	73.398565
-50.964355	-36.286621	69.846247
-51.779785	-25.278320	66.329133
-46.479492	-14.270020	62.848897
-51.779785	1.630859	59.408702
-53.818359	1.630859	56.008420
-54.633789	-6.931152	52.647139
-55.856934	-0.815430	49.325336
-55.856934	14.270020	46.043859
-51.372070	15.900879	42.805182
-50.964355	12.231445	39.613235
-45.664062	8.969727	36.472037
-41.179199	12.231445	33.386660
-44.440918	2.854004	30.360708
-52.187500	-3.261719	27.392097
-56.672363	-14.270020	24.475244
-57.080078	-14.677734	21.606369
-60.341797	-11.823730	18.784064
-58.303223	-4.484863	16.007898
-62.380371	-2.446289	13.277843
-68.903809	-5.300293	10.591356
-75.427246	-6.931152	7.943073
-75.019531	3.261719	5.329014
-67.272949	8.562012	2.750909
-57.080078	7.338867	0.216693
-50.556641	12.231445	-2.263857
-48.518066	15.085449	-4.683926
-44.440918	15.493164	-7.039856
-43.625488	9.785156	-9.329185
-40.363770	-0.407715	-11.550171
-39.956055	-11.008301	-13.701541
-42.402344	-16.716309	-15.783761
-48.518066	-21.201172	-17.800562
-48.110352	-20.793457	-19.756536
-61.157227	-15.085449	-21.657205
-73.796387	-14.677734	-23.513145
-83.173828	-14.270020	-25.336963
-84.804687	-0.407715	-27.136875
-76.650391	3.669434	-28.913251
-70.942383	0.815430	-30.659934
-57.487793	2.446289	-32.367761
-49.333496	5.708008	-34.025986
-45.664062	2.854004	-35.626334
-39.140625	2.854004	-37.163962
-38.325195	4.484863	-38.635490
-33.432617	0.000000	-40.038940
-31.394043	-19.570313	-41.372603
-36.694336	-25.278320	-42.637275
-48.110352	-26.909180	-43.840002
-57.080078	-23.239746	-44.992074
-58.303223	-12.639160	-46.102607
-57.080078	-6.523437	-47.174995
-57.080078	2.446289	-48.209519
-54.633789	11.416016	-49.205842
-57.487793	16.716309	-50.164113
-63.195801	8.154297	-51.087407
-62.380371	0.407715	-51.979872
-63.603516	8.562012	-52.843361
-62.380371	13.046875	-53.678384
-56.672363	8.969727	-54.483536
-44.033203	4.892578	-55.252682
-40.363770	6.931152	-55.977542
-42.810059	1.630859	-56.654756
-42.810059	-2.446289	-57.286094
-50.556641	-12.231445	-57.875647
-55.449219	-11.008301	-58.430045
-53.002930	-4.484863	-58.954261
-59.118652	-13.454590	-59.450719
-58.303223	-16.716309	-59.922511
-49.741211	-13.454590	-60.369187
-49.741211	-10.600586	-60.786705
-41.179199	0.000000	-61.171448
-39.548340	12.231445	-61.519571
-38.732910	15.493164	-61.829047
-41.179199	14.270020	-62.101088
-37.509766	17.124023	-62.337212
-39.140625	9.377441	-62.537940
-41.586914	-7.746582	-62.705202
-39.548340	-13.046875	-62.841517
-40.771484	-15.900879	-62.948036
-50.556641	-14.677734	-63.028675
-57.080078	-11.823730	-63.091699
-61.157227	-5.300293	-63.144907
-60.749512	-11.008301	-63.192438
-55.449219	-8.154297	-63.233962
-50.556641	-4.892578	-63.265533
-39.956055	9.377441	-63.280819
-32.617187	27.724609	-63.271761
-37.102051	22.832031	-63.234009
-35.878906	8.562012	-63.169010
-41.179199	-7.746582	-63.079994
-33.840332	0.000000	-62.968680
-30.578613	7.746582	-62.832874
-33.024902	5.708008	-62.670831
-32.617187	-2.446289	-62.484229
-30.986328	-6.523437	-62.274380
-31.394043	-3.669434	-62.041698
-33.840332	-5.708008	-61.787893
-36.694336	-12.639160	-61.516330
-41.586914	-8.562012	-61.231526
-46.479492	-3.261719	-60.938986
-48.518066	4.484863	-60.643759
-42.810059	0.000000	-60.347134
-39.956055	6.523437	-60.046272
-37.102051	14.677734	-59.737934
-39.956055	32.209473	-59.421283
-39.548340	21.201172	-59.097670
-36.694336	7.338867	-58.767537
-27.724609	-11.008301	-58.427564
-28.132324	-15.900879	-58.073199
-23.647461	-13.454590	-57.702145
-30.986328	-5.300293	-57.315228
-32.209473	-4.484863	-56.916572
-35.471191	-4.484863	-56.510555
-39.140625	-3.669434	-56.100936
-39.956055	5.300293	-55.691308
-41.586914	13.454590	-55.283922
-43.625488	18.347168	-54.880711
-42.810059	18.754883	-54.483195
-43.625488	10.600586	-54.091855
-44.033203	17.124023	-53.707143
-36.694336	22.832031	-53.327664
-31.801758	19.978027	-52.948546
-24.462891	24.462891	-52.563744
-29.763184	21.201172	-52.170172
-39.956055	15.900879	-51.772176
-52.187500	9.377441	-51.380334
-45.664062	8.562012	-51.002169
-42.402344	-4.484863	-50.636388
-39.140625	-11.823730	-50.278530
-34.655762	-7.746582	-49.924864
-39.548340	-3.261719	-49.573642
-46.479492	7.746582	-49.228338
-44.440918	15.493164	-48.893436
-37.509766	18.347168	-48.567745
-32.617187	14.677734	-48.245730
-32.617187	23.239746	-47.923169
-32.617187	35.878906	-47.599142
-27.724609	21.201172	-47.272771
-24.870605	7.746582	-46.941184
-22.832031	5.300293	-46.601645
-27.724609	11.416016	-46.254338
-25.278320	16.308594	-45.901370
-34.655762	19.162598	-45.545833
-37.509766	8.969727	-45.193250
-39.548340	8.154297	-44.848356
-32.617187	10.600586	-44.511165
-35.471191	4.077148	-44.179327
-33.840332	0.815430	-43.852197
-33.840332	8.562012	-43.529799
-29.355469	16.308594	-43.210651
-30.986328	15.493164	-42.893013
-23.239746	14.677734	-42.574794
-17.531738	17.531738	-42.251213
-15.900879	16.308594	-41.917393
-13.046875	16.716309	-41.571041
-15.085449	22.424316	-41.211696
-10.600586	17.124023	-40.839469
-19.162598	11.008301	-40.455763
-28.540039	12.231445	-40.067284
-36.286621	2.854004	-39.683868
-36.694336	-9.377441	-39.312329
-38.732910	-4.892578	-38.955303
-40.771484	0.407715	-38.614221
-37.509766	6.523437	-38.289470
-37.102051	4.077148	-37.979365
-40.363770	5.708008	-37.683354
-38.732910	8.154297	-37.402287
-42.402344	12.231445	-37.136747
-45.664062	14.270020	-36.888666
-42.402344	19.978027	-36.659333
-33.840332	24.055176	-36.445034
-23.239746	17.124023	-36.237174
-18.347168	11.008301	-36.026575
-19.570313	9.377441	-35.808549
-15.085449	8.562012	-35.581840
-23.239746	5.708008	-35.347188
-29.355469	3.261719	-35.109912
-35.471191	-4.892578	-34.877341
-36.694336	-6.523437	-34.654647
-28.947754	2.446289	-34.441832
-27.724609	13.046875	-34.234601
-25.278320	21.201172	-34.029598
-27.724609	24.870605	-33.825975
-28.947754	20.385742	-33.624846
-24.055176	14.677734	-33.426310
-25.278320	7.746582	-33.228531
-21.608887	15.493164	-33.030074
-19.978027	17.124023	-32.829145
-17.531738	16.716309	-32.623604
-15.493164	16.308594	-32.411625
-19.162598	16.308594	-32.192974
-15.900879	9.377441	-31.968719
-19.162598	9.377441	-31.739456
-21.608887	4.484863	-31.507153
-28.540039	0.000000	-31.276153
-30.986328	2.446289	-31.051568
-30.986328	9.377441	-30.836448
-20.385742	17.124023	-30.628449
-21.608887	24.870605	-30.422219
-24.462891	29.355469	-30.216502
-22.424316	28.132324	-30.012775
-16.716309	17.531738	-29.809343
-11.008301	21.201172	-29.601371
-5.708008	29.763184	-29.383394
-3.669434	14.270020	-29.151274
-13.454590	-5.708008	-28.906003
-17.531738	-5.708008	-28.654111
-28.540039	0.407715	-28.403767
-34.655762	6.931152	-28.163626
-44.848633	12.231445	-27.942258
-52.187500	2.854004	-27.747937
-49.333496	-5.708008	-27.585423
-46.479492	7.338867	-27.453125
-39.956055	17.124023	-27.345850
-27.724609	30.578613	-27.255187
-15.085449	26.501465	-27.169019
-5.708008	24.870605	-27.074915
-10.600586	19.570313	-26.966372
-1.630859	17.531738	-26.841910
-5.708008	20.793457	-26.700025
-4.892578	12.231445	-26.541226
-4.484863	5.708008	-26.366983
-4.484863	1.630859	-26.177749
-7.338867	1.223145	-25.975047
-8.969727	8.969727	-25.761626
-6.523437	14.270020	-25.539161
-9.785156	5.300293	-25.308296
-14.677734	4.892578	-25.072009
-26.501465	14.677734	-24.837328
-29.763184	24.462891	-24.612781
-26.501465	28.947754	-24.402107
-19.162598	27.316895	-24.202115
-15.493164	24.055176	-24.006853
-17.531738	19.978027	-23.812994
-13.046875	15.900879	-23.619605
-9.785156	8.562012	-23.424191
-9.377441	16.716309	-23.224051
-9.377441	25.686035	-23.018537
-16.308594	26.909180	-22.809823
-15.085449	11.008301	-22.601594
-15.493164	-1.223145	-22.395331
-15.493164	1.630859	-22.191056
-19.978027	12.639160	-21.990177
-20.793457	15.900879	-21.795322
-24.462891	19.978027	-21.608994
-26.909180	16.716309	-21.433787
-31.394043	12.231445	-21.272808
-25.686035	21.608887	-21.127080
-22.832031	30.986328	-20.993497
-26.909180	21.608887	-20.869719
-22.832031	18.347168	-20.755753
-20.793457	15.493164	-20.649670
-21.201172	19.570313	-20.549186
-15.900879	23.239746	-20.452442
-9.377441	18.347168	-20.354978
-12.231445	12.231445	-20.252859
-13.046875	10.600586	-20.146403
-19.978027	13.046875	-20.038918
-24.870605	15.900879	-19.935704
-28.540039	18.347168	-19.842031
-19.978027	24.870605	-19.758530
-14.270020	28.132324	-19.679792
-14.270020	34.655762	-19.600437
-14.270020	38.325195	-19.519077
-11.416016	39.956055	-19.435139
-0.815430	38.325195	-19.344543
8.154297	44.440918	-19.239012
7.746582	32.617187	-19.111942
7.746582	22.424316	-18.962301
5.708008	22.424316	-18.791912
-5.300293	16.716309	-18.605857
-14.270020	1.630859	-18.413717
-21.201172	-5.708008	-18.225393
-24.055176	5.300293	-18.047659
-19.978027	9.377441	-17.882471
-19.978027	17.124023	-17.728041
-28.947754	18.754883	-17.585329
-25.278320	20.793457	-17.457703
-22.832031	17.531738	-17.344398
-8.969727	26.909180	-17.238996
-5.708008	29.763184	-17.132465
-4.077148	28.132324	-17.019186
-5.300293	24.870605	-16.898191
-4.077148	24.870605	-16.769849
-8.154297	21.608887	-16.635378
-16.716309	18.347168	-16.499268
-21.608887	13.046875	-16.368589
-23.239746	3.669434	-16.248481
-21.608887	-1.223145	-16.140305
-17.531738	2.446289	-16.042134
-9.377441	2.854004	-15.948906
-13.046875	2.854004	-15.856104
-15.085449	5.708008	-15.764126
-15.493164	16.308594	-15.675175
-17.531738	24.055176	-15.590492
-21.608887	28.540039	-15.512221
-24.462891	30.986328	-15.443582
-22.832031	28.947754	-15.386352
-7.338867	22.832031	-15.335898
-5.300293	16.308594	-15.282861
-8.969727	10.600586	-15.223238
-11.823730	6.931152	-15.159531
-15.900879	6.931152	-15.095528
-8.969727	12.639160	-15.032379
-1.223145	15.493164	-14.965507
-3.261719	20.385742	-14.889796
-10.600586	12.231445	-14.806690
-10.600586	16.308594	-14.721002
-16.716309	18.754883	-14.636474
-14.677734	24.870605	-14.555820
-14.677734	28.947754	-14.479484
-6.523437	39.956055	-14.404673
-4.892578	39.956055	-14.326685
0.407715	28.132324	-14.241354
-1.630859	19.570313	-14.146424
0.815430	12.231445	-14.041468
1.630859	4.077148	-13.926085
-1.223145	0.815430	-13.800548
-6.931152	7.746582	-13.668233
-11.823730	5.300293	-13.534621
-8.562012	4.484863	-13.403123
-7.746582	0.407715	-13.273140
-9.785156	0.000000	-13.143990
-5.300293	13.454590	-13.015449
-3.261719	30.986328	-12.885269
-8.154297	37.509766	-12.752696
-9.377441	37.102051	-12.620335
-4.892578	32.617187	-12.489065
1.630859	38.732910	-12.355225
2.446289	27.724609	-12.214254
4.077148	24.870605	-12.064052
6.931152	21.201172	-11.903375
8.969727	15.493164	-11.730402
4.892578	10.600586	-11.545123
-4.892578	13.046875	-11.352467
-11.008301	9.785156	-11.160790
-15.900879	10.600586	-10.977316
-17.531738	17.124023	-10.806474
-18.754883	19.162598	-10.650332
-21.608887	26.501465	-10.510210
-23.647461	28.947754	-10.387885
-12.231445	21.201172	-10.281501
-4.077148	24.055176	-10.182844
-3.261719	34.248047	-10.084169
0.407715	32.617187	-9.982047
0.407715	25.278320	-9.874600
0.815430	26.909180	-9.761110
1.630859	28.947754	-9.641543
3.669434	17.124023	-9.515227
13.454590	15.493164	-9.378747
8.562012	12.231445	-9.228315
4.484863	9.377441	-9.065792
0.815430	9.785156	-8.896288
0.407715	19.570313	-8.723403
4.077148	18.347168	-8.547687
2.854004	11.416016	-8.367953
7.746582	14.270020	-8.182965
5.708008	20.385742	-7.991442
1.630859	29.355469	-7.794739
-1.630859	32.617187	-7.596831
-1.223145	33.024902	-7.400659
0.815430	19.570313	-7.206456
4.484863	22.832031	-7.012196
3.261719	21.608887	-6.815943
5.708008	16.308594	-6.617030
3.261719	11.416016	-6.415465
1.223145	11.416016	-6.212758
3.669434	18.347168	-6.010246
-0.407715	19.978027	-5.808452
-4.077148	23.647461	-5.610021
-5.708008	13.046875	-5.418435
-8.154297	10.600586	-5.236050
-0.407715	17.124023	-5.062317
3.669434	21.608887	-4.892531
4.077148	17.124023	-4.722405
5.300293	22.424316	-4.550528
0.000000	31.801758	-4.377802
8.154297	30.986328	-4.204769
7.746582	30.578613	-4.028839
15.900879	29.763184	-3.846259
12.639160	17.124023	-3.654202
6.931152	9.377441	-3.454370
-3.261719	20.793457	-3.253859
-11.823730	12.231445	-3.062014
-12.639160	4.484863	-2.886033
-6.523437	2.854004	-2.726454
-1.223145	12.231445	-2.578310
1.630859	33.432617	-2.436098
2.854004	41.586914	-2.296485
0.407715	29.763184	-2.158750
0.407715	16.308594	-2.023917
-7.746582	17.124023	-1.894781
-4.077148	24.055176	-1.774540
-0.815430	31.801758	-1.662274
3.669434	37.102051	-1.553884
4.077148	42.402344	-1.445988
6.931152	31.801758	-1.336535
10.600586	24.055176	-1.223140
12.639160	7.746582	-1.102888
10.600586	3.669434	-0.974717
8.154297	9.377441	-0.840298
5.708008	17.124023	-0.702519
1.630859	18.347168	-0.564676
0.000000	16.716309	-0.430129
-2.446289	19.978027	-0.301442
-2.446289	24.870605	-0.180197
4.077148	24.870605	-0.065113
10.600586	29.355469	0.049108
13.046875	27.724609	0.168169
12.639160	25.686035	0.294618
13.454590	34.655762	0.428629
14.677734	24.870605	0.570362
12.639160	11.823730	0.719639
10.600586	10.600586	0.874677
0.815430	16.308594	1.030873
-4.077148	19.162598	1.181051
-7.746582	23.239746	1.319219
-7.338867	19.978027	1.442672
-6.523437	15.493164	1.551411
-4.484863	13.046875	1.647058
-7.746582	17.531738	1.730536
-15.085449	27.724609	1.799203
-14.270020	31.801758	1.849158
-4.892578	32.617187	1.882161
6.931152	36.694336	1.907193
12.231445	28.132324	1.934656
14.270020	34.248047	1.970837
8.562012	38.325195	2.016267
8.969727	43.625488	2.068123
15.900879	38.732910	2.126595
24.055176	20.385742	2.197212
16.716309	9.377441	2.283526
5.300293	6.931152	2.380023
6.523437	17.124023	2.478537
2.854004	27.724609	2.575551
10.600586	30.986328	2.671461
14.677734	30.578613	2.770392
16.716309	30.578613	2.876816
17.531738	31.801758	2.992639
18.347168	36.694336	3.118490
13.454590	35.878906	3.253141
8.562012	38.732910	3.392409
11.416016	45.664062	3.532833
13.454590	43.217773	3.674964
10.600586	30.578613	3.819644
10.600586	22.832031	3.965643
11.823730	21.201172	4.112320
9.785156	13.046875	4.259596
10.600586	15.493164	4.406754
4.484863	19.978027	4.551932
4.077148	12.231445	4.691959
2.854004	15.900879	4.824782
0.815430	32.617187	4.949300
-3.261719	39.956055	5.063297
-2.446289	42.402344	5.164666
0.407715	45.256348	5.253980
9.785156	50.556641	5.335869
16.308594	46.479492	5.417971
13.454590	42.402344	5.505334
13.454590	45.664062	5.597840
20.385742	51.779785	5.696231
20.385742	39.548340	5.803777
17.124023	12.639160	5.920916
19.162598	11.416016	6.045910
6.931152	24.055176	6.175275
9.377441	24.462891	6.303427
14.270020	24.055176	6.429645
22.832031	31.394043	6.559345
25.278320	39.548340	6.698661
23.647461	39.548340	6.850115
22.424316	35.063477	7.012463
18.754883	44.033203	7.183006
23.239746	40.363770	7.360122
26.501465	33.432617	7.545577
28.132324	38.732910	7.742118
31.394043	45.664062	7.951606
27.316895	47.294922	8.174305
28.947754	48.110352	8.408527
26.909180	43.217773	8.652754
16.308594	35.063477	8.902847
17.531738	32.617187	9.152495
6.931152	27.724609	9.396529
8.562012	30.578613	9.630128
6.523437	32.617187	9.851055
4.484863	38.732910	10.058475
5.708008	51.372070	10.251496
9.377441	53.410645	10.431639
16.308594	55.041504	10.603368
21.201172	55.041504	10.772775
29.355469	46.887207	10.946319
26.501465	35.471191	11.128452
17.124023	26.909180	11.316771
15.085449	39.956055	11.504586
16.308594	33.024902	11.688510
13.454590	26.909180	11.867884
14.270020	13.454590	12.041760
17.531738	13.454590	12.210742
16.716309	19.570313	12.376586
9.785156	18.347168	12.537868
4.484863	22.832031	12.689379
7.338867	34.248047	12.827545
9.785156	50.964355	12.953576
15.900879	52.187500	13.071530
21.201172	42.402344	13.186898
15.085449	30.578613	13.302461
11.008301	36.694336	13.415196
12.639160	40.363770	13.521793
17.124023	32.209473	13.623382
20.793457	26.501465	13.723832
24.462891	25.686035	13.827158
29.355469	27.724609	13.937299
18.754883	25.278320	14.054580
19.162598	23.239746	14.174377
14.677734	28.540039	14.292702
15.493164	19.570313	14.407462
16.308594	26.909180	14.518163
22.424316	33.024902	14.627121
20.793457	35.878906	14.737300
25.686035	41.179199	14.850563
22.424316	55.449219	14.967937
19.570313	45.256348	15.087934
22.424316	27.724609	15.208704
26.501465	28.947754	15.331903
29.355469	26.909180	15.460936
20.385742	29.355469	15.595615
11.416016	31.801758	15.729225
6.931152	25.686035	15.853426
5.300293	21.201172	15.963374
8.154297	15.493164	16.058313
11.008301	15.493164	16.140645
14.270020	13.454590	16.213961
14.677734	21.201172	16.281162
14.270020	32.617187	16.343419
15.493164	38.732910	16.401105
12.231445	37.509766	16.454045
18.347168	36.694336	16.502612
19.570313	36.286621	16.549631
23.647461	36.694336	16.598443
26.501465	43.217773	16.652129
30.578613	44.848633	16.714053
35.063477	32.617187	16.787846
33.024902	22.832031	16.875785
33.024902	25.278320	16.977244
33.024902	24.055176	17.090966
18.754883	24.462891	17.212530
9.377441	28.947754	17.331491
2.854004	12.231445	17.437454
-1.223145	13.046875	17.523934
7.338867	30.986328	17.590117
11.416016	36.694336	17.641351
13.454590	40.363770	17.683187
14.677734	42.402344	17.718469
8.969727	51.372070	17.747137
11.823730	49.741211	17.767532
18.347168	46.887207	17.781722
21.201172	28.947754	17.794899
20.385742	17.124023	17.810093
19.978027	17.531738	17.827413
24.055176	21.201172	17.847386
21.201172	20.385742	17.871156
26.501465	28.132324	17.899490
23.239746	30.986328	17.933329
19.162598	27.724609	17.970997
14.677734	29.355469	18.008102
12.639160	37.102051	18.040670
15.900879	38.325195	18.067478
23.647461	32.617187	18.091973
28.540039	38.732910	18.120446
35.471191	53.002930	18.159113
35.471191	59.934082	18.212397
44.848633	58.303223	18.283866
48.110352	40.363770	18.378402
42.402344	34.655762	18.497539
42.402344	44.440918	18.637894
34.248047	41.179199	18.794719
35.471191	35.471191	18.963138
30.986328	20.793457	19.139772
35.063477	16.716309	19.323099
37.509766	24.870605	19.514229
30.578613	48.518066	19.713144
35.471191	63.603516	19.917569
35.471191	50.964355	20.127787
44.033203	28.947754	20.346852
42.402344	15.900879	20.578201
38.732910	26.909180	20.821462
39.548340	39.548340	21.073700
38.325195	42.402344	21.333384
35.878906	40.363770	21.598834
40.771484	35.063477	21.869188
39.956055	29.355469	22.145653
32.209473	26.501465	22.426484
33.024902	31.801758	22.707119
32.209473	31.394043	22.985450
29.763184	24.870605	23.260432
33.432617	19.570313	23.531393
36.694336	24.870605	23.800373
35.063477	34.248047	24.069427
34.248047	40.771484	24.338056
39.140625	41.179199	24.606424
40.363770	32.617187	24.876940
44.033203	28.132324	25.152113
44.848633	21.201172	25.433906
51.779785	22.832031	25.724937
61.157227	27.724609	26.030800
70.534668	36.694336	26.359712
68.496094	41.586914	26.717139
67.272949	31.394043	27.102482
63.195801	25.686035	27.511824
59.934082	17.531738	27.940326
61.564941	26.501465	28.384314
65.234375	27.724609	28.843583
70.534668	36.286621	29.320707
71.350098	44.033203	29.818339
71.757812	37.509766	30.336953
78.688965	18.754883	30.877304
81.135254	24.870605	31.442229
88.066406	32.617187	32.034949
95.405273	39.548340	32.659793
104.782715	37.509766	33.322788
107.636719	38.325195	34.029114
107.636719	40.363770	34.780027
97.851562	35.063477	35.570897
97.036133	39.140625	36.393728
95.812988	34.655762	37.242887
101.113281	34.655762	38.116823
106.413574	37.102051	39.017351
110.898438	34.248047	39.947676
114.567871	38.325195	40.910182
115.383301	39.548340	41.905719
121.499023	40.363770	42.934744
114.567871	54.633789	43.996264
114.975586	61.564941	45.085764
119.868164	64.011230	46.200510
117.829590	60.749512	47.340328
122.722168	62.788086	48.504384
118.645020	58.303223	49.691321
119.052734	53.002930	50.898104
110.490723	42.402344	52.119461
108.452148	39.956055	53.348521
101.113281	39.548340	54.578396
104.782715	35.471191	55.804329
111.713867	43.625488	57.027031
117.421875	51.372070	58.251469
121.091309	55.041504	59.482061
125.576172	48.925781	60.721841
126.799316	44.440918	61.972730
124.760742	48.110352	63.234197
124.353027	52.187500	64.503580
129.653320	52.187500	65.779828
134.953613	48.110352	67.065361
140.253906	56.264648	68.363974
148.408203	60.749512	69.680031
152.077637	57.080078	71.017998
152.893066	52.595215	72.379761
146.777344	35.878906	73.762596
140.661621	13.046875	75.159490
137.807617	11.416016	76.562768
138.623047	23.239746	77.967776
138.623047	27.724609	79.372638
139.030762	27.724609	80.776204
130.876465	27.724609	82.175131
128.837891	29.763184	83.563448
141.069336	25.686035	84.940175
145.146484	36.694336	86.311353
147.185059	50.964355	87.681684
156.970215	50.556641	89.054478
159.824219	49.333496	90.434608
161.862793	31.801758	91.824896
157.785645	23.647461	93.224170
159.008789	15.085449	94.629269
161.862793	19.978027	96.038773
168.793945	21.201172	97.454643
165.124512	17.124023	98.878529
169.609375	26.501465	100.309644
167.978516	29.763184	101.747120
170.424805	34.248047	103.190123
183.879395	33.024902	104.641276
214.865723	33.432617	106.114538
227.097168	39.140625	107.630384
240.551758	55.041504	109.203393
251.560059	59.526367	110.842495
261.345215	48.110352	112.554861
273.168945	41.586914	114.346511
290.700684	35.471191	116.225357
307.416992	35.878906	118.202181
322.094727	29.763184	120.287711
340.849609	33.432617	122.491858
359.604492	34.248047	124.825567
379.174805	39.140625	127.300436
394.260254	43.217773	129.926639
406.083984	40.363770	132.710731
422.800293	39.140625	135.657198
434.216309	39.548340	138.770474
446.040039	42.402344	142.053224
459.902344	50.556641	145.507170
472.949219	48.110352	149.134743
483.142090	43.625488	152.937436
492.519531	38.732910	156.914564
494.965820	41.179199	161.062290
499.450684	25.686035	165.373453
514.128418	18.754883	169.842971
522.282715	25.686035	174.470004
527.990723	43.217773	179.252191
532.475586	36.694336	184.183796
537.775879	26.501465	189.258114
537.368164	21.201172	194.467202
536.145020	18.347168	199.800337
527.990723	28.947754	205.243402
520.651855	48.518066	210.779163
517.797852	51.372070	216.390855
516.574707	37.509766	222.065393
509.235840	32.209473	227.790647
512.497559	32.617187	233.554981
506.381836	32.209473	239.348748
512.497559	30.986328	245.163777
511.274414	36.694336	250.994278
517.390137	33.432617	256.835996
517.797852	28.540039	262.685281
507.197266	25.686035	268.534682
495.373535	26.501465	274.369479
472.541504	22.424316	280.169207
469.279785	26.501465	285.913405
463.164063	28.132324	291.589234
452.563477	27.724609	297.186975
443.593750	39.140625	302.694751
440.739746	46.887207	308.102606
436.662598	45.664062	313.404458
420.761719	39.548340	318.592471
408.122559	53.818359	323.653606
397.521973	50.556641	328.574694
381.213379	44.440918	333.343736
379.582520	31.394043	337.950829
377.136230	23.239746	342.392688
371.020508	15.493164	346.668812
363.273926	11.416016	350.776328
355.119629	12.231445	354.710741
344.111328	15.900879	358.466551
340.034180	37.509766	362.038908
328.210449	46.887207	365.424232
311.901855	40.363770	368.615873
301.301270	28.947754	371.604795
294.777832	28.947754	374.385478
289.477539	28.947754	376.956830
284.992676	38.325195	379.319959
273.984375	39.140625	381.475178
260.937500	35.471191	383.419254
256.452637	27.724609	385.148787
254.006348	28.540039	386.665256
250.744629	29.355469	387.973403
249.929199	29.763184	389.078721
242.998047	27.724609	389.986134
231.174316	16.308594	390.696696
213.234863	7.746582	391.205834
210.788574	19.162598	391.508967
193.664551	27.316895	391.604616
179.394531	29.763184	391.488695
163.085937	29.763184	391.154632
159.008789	33.024902	390.599275
150.446777	26.909180	389.824562
148.815918	28.947754	388.835247
153.300781	31.801758	387.640167
154.523926	37.509766	386.252151
145.961914	34.655762	384.680972
131.691895	11.416016	382.928654
123.537598	-10.600586	380.993360
117.829590	-9.785156	378.875881
112.937012	-4.077148	376.580272
102.744141	-4.077148	374.110269
90.920410	2.854004	371.466624
84.396973	11.416016	368.649380
81.135254	14.270020	365.661974
80.319824	14.677734	362.511614
75.019531	22.832031	359.206316
67.680664	28.947754	355.751649
69.311523	28.947754	352.153190
66.865234	30.986328	348.419523
59.934082	17.124023	344.558020
49.741211	12.231445	340.571571
47.294922	7.746582	336.462206
40.771484	6.931152	332.234138
42.402344	2.854004	327.893547
39.956055	2.854004	323.448592
34.248047	1.630859	318.906317
18.754883	0.407715	314.268194
9.377441	0.000000	309.531337
-3.669434	3.669434	304.692774
-11.823730	1.630859	299.750737
-13.454590	1.630859	294.706967
-14.677734	11.416016	289.568056
-16.716309	22.424316	284.342107
-17.531738	25.278320	279.036948
-24.055176	23.647461	273.659066
-30.986328	17.124023	268.211946
-32.617187	15.900879	262.698663
-32.617187	18.754883	257.125333
-33.432617	14.677734	251.499890
-37.509766	13.454590	245.829106
-41.179199	12.639160	240.117675
-46.887207	13.046875	234.368941
-52.187500	11.008301	228.585280
-59.118652	11.823730	222.768248
-63.195801	13.046875	216.919364
-65.642090	10.600586	211.041611
-67.272949	6.931152	205.139690
-68.496094	10.600586	199.219075
-63.603516	11.008301	193.287050
-63.195801	18.347168	187.352721
-61.157227	26.909180	181.424463
-57.487793	27.724609	175.510371
-52.187500	24.462891	169.619875
-53.410645	18.347168	163.761520
-59.118652	19.162598	157.939258
-69.719238	25.278320	152.151465
-80.727539	24.870605	146.392700
-86.843262	14.677734	140.657524
-86.843262	0.000000	134.944791
-88.474121	-4.892578	129.257450
-83.581543	3.669434	123.600756
-86.435547	5.300293	117.980655
-90.920410	11.416016	112.400004
-95.405273	14.270020	106.858593
-95.812988	17.531738	101.356826
-97.851562	26.909180	95.896760
-96.220703	29.763184	90.481493
-88.474121	28.132324	85.117040
-85.620117	22.424316	79.811985
-85.620117	25.686035	74.572744
-86.435547	26.909180	69.402375
-91.735840	20.793457	64.301370
-94.589844	7.746582	59.268197
-92.958984	7.338867	54.302607
-101.113281	11.416016	49.404722
-110.898438	19.978027	44.570192
-115.791016	32.209473	39.792659
-115.791016	25.278320	35.069420
-109.675293	25.278320	30.403298
-103.559570	28.947754	25.801427
-103.967285	28.947754	21.270445
-104.782715	9.785156	16.813078
-107.636719	11.416016	12.429388
-104.782715	26.909180	8.119680
-102.744141	38.325195	3.886414
-101.520996	37.509766	-0.267283
-109.267578	23.647461	-4.341509
-110.490723	23.647461	-8.339655
-109.675293	22.424316	-12.263429
-113.344727	19.978027	-16.112936
-120.683594	1.630859	-19.891138
-130.876465	-8.969727	-23.604793
-126.391602	5.300293	-27.259028
-125.168457	16.716309	-30.852697
-122.722168	22.424316	-34.382304
-115.791016	20.385742	-37.843617
-114.567871	28.132324	-41.231487
-126.799316	29.763184	-44.546433
-132.915039	23.239746	-47.795987
-135.769043	17.124023	-50.986873
-134.953613	23.239746	-54.121290
-129.245605	25.686035	-57.197324
-121.906738	23.239746	-60.209248
-112.937012	19.978027	-63.149090
-106.821289	7.338867	-66.008781
-109.675293	-4.484863	-68.784129
-114.567871	-4.077148	-71.477218
-123.129883	-2.854004	-74.094514
-127.614746	14.677734	-76.643663
-127.614746	17.124023	-79.129681
-127.614746	17.531738	-81.553994
-117.014160	19.978027	-83.914065
-111.306152	26.909180	-86.203258
-103.151855	22.424316	-88.414453
-101.520996	28.540039	-90.542650
-99.074707	26.909180	-92.585731
-100.297852	21.201172	-94.544015
-99.074707	18.754883	-96.418965
-103.559570	18.754883	-98.213243
-101.928711	17.124023	-99.930227
-106.413574	14.677734	-101.573115
-114.567871	0.000000	-103.147607
-121.091309	-11.008301	-104.662324
-120.275879	4.484863	-106.123738
-121.091309	24.870605	-107.534230
-123.129883	36.286621	-108.895372
-122.722168	27.724609	-110.209151
-121.091309	10.600586	-111.476224
-115.383301	8.969727	-112.694913
-114.567871	19.162598	-113.862489
-114.567871	25.686035	-114.978113
-112.121582	32.209473	-116.042110
-106.413574	30.578613	-117.052917
-107.229004	37.509766	-118.008455
-102.744141	35.878906	-118.907975
-108.452148	24.870605	-119.752428
-107.636719	18.754883	-120.545027
-103.559570	24.055176	-121.287291
-112.529297	22.424316	-121.980720
-117.829590	6.931152	-122.631832
-119.460449	8.562012	-123.247429
-115.383301	13.454590	-123.829653
-111.713867	19.978027	-124.376726
-106.413574	25.278320	-124.885276
-108.044434	36.694336	-125.353192
-103.967285	40.363770	-125.780219
-102.744141	51.779785	-126.165725
-98.666992	53.818359	-126.508403
-95.812988	49.741211	-126.806619
-96.628418	44.440918	-127.059719
-96.628418	28.947754	-127.269160
-93.366699	33.432617	-127.436058
-99.482422	45.256348	-127.562058
-109.267578	45.664062	-127.653808
-114.567871	37.102051	-127.720903
-121.091309	26.909180	-127.771458
-123.129883	31.801758	-127.811525
-112.529297	19.162598	-127.841536
-111.306152	21.201172	-127.856562
-103.151855	33.432617	-127.851696
-101.113281	44.440918	-127.822704
-95.812988	41.179199	-127.766103
-81.542969	39.548340	-127.676136
-75.834961	39.548340	-127.544020
-72.980957	50.556641	-127.364308
-79.912109	53.818359	-127.138165
-86.843262	48.110352	-126.872647
-90.512695	37.509766	-126.576243
-95.405273	24.462891	-126.255698
-98.666992	31.394043	-125.916833
-101.520996	28.132324	-125.564583
-99.482422	23.239746	-125.201746
-96.220703	24.055176	-124.828005
-93.366699	35.471191	-124.441247
-96.220703	44.440918	-124.040862
-98.666992	42.810059	-123.629281
-95.405273	33.432617	-123.208622
-94.589844	29.763184	-122.778452
-93.774414	28.947754	-122.338156
-84.804687	40.363770	-121.885656
-82.766113	34.655762	-121.416518
-74.611816	39.140625	-120.926420
-72.165527	41.179199	-120.411365
-75.019531	34.655762	-119.870346
-84.804687	27.724609	-119.308536
-86.435547	15.900879	-118.733788
-90.920410	14.270020	-118.151895
-89.697266	18.347168	-117.566257
-91.328125	23.239746	-116.978623
-90.512695	20.385742	-116.390022
-92.958984	16.308594	-115.801759
-92.143555	17.124023	-115.215293
-94.589844	21.201172	-114.632017
-89.697266	23.239746	-114.052184
-83.989258	28.540039	-113.472820
-87.250977	27.724609	-112.891085
-92.958984	22.424316	-112.309412
-93.774414	21.608887	-111.732479
-90.920410	22.832031	-111.161856
-82.358398	18.347168	-110.594322
-76.242676	15.900879	-110.023479
-72.573242	11.823730	-109.443650
-70.534668	21.608887	-108.851781
-72.980957	23.647461	-108.247649
-87.658691	27.724609	-107.637049
-91.735840	18.347168	-107.030341
-94.589844	16.308594	-106.434733
-93.366699	25.686035	-105.852597
-85.212402	38.732910	-105.281899
-82.358398	38.732910	-104.717366
-75.834961	37.509766	-104.153957
-68.088379	34.655762	-103.586000
-62.788086	33.024902	-103.007123
-55.449219	34.655762	-102.411681
-60.341797	26.909180	-101.797088
-64.418945	15.900879	-101.166572
-75.834961	7.746582	-100.527941
-80.727539	5.708008	-99.890589
-85.620117	10.600586	-99.261983
-93.366699	15.900879	-98.648276
-91.328125	24.870605	-98.054259
-88.881836	23.239746	-97.479984
-85.620117	25.686035	-96.922484
-88.474121	42.402344	-96.379976
-86.843262	48.925781	-95.852566
-83.989258	51.372070	-95.339267
-79.096680	40.771484	-94.836766
-72.980957	43.625488	-94.340175
-68.088379	36.694336	-93.843965
-68.903809	34.248047	-93.344676
-58.303223	29.763184	-92.839332
-58.303223	20.385742	-92.323383
-58.303223	20.385742	-91.795066
-63.603516	24.870605	-91.256890
-64.826660	26.909180	-90.712973
-71.757812	25.686035	-90.168003
-72.980957	31.801758	-89.626883
-76.650391	35.878906	-89.093435
-75.834961	35.878906	-88.569907
-75.834961	50.964355	-88.056935
-81.542969	48.518066	-87.555864
-89.289551	42.402344	-87.071717
-84.804687	37.102051	-86.608626
-73.388672	38.732910	-86.162802
-63.603516	47.702637	-85.724187
-57.080078	52.595215	-85.283060
-55.449219	39.956055	-84.833574
-63.603516	24.462891	-84.376150
-68.903809	15.900879	-83.916877
-72.980957	15.900879	-83.462319
-71.757812	17.124023	-83.015953
-63.195801	29.355469	-82.576056
-62.788086	40.363770	-82.137871
-65.234375	40.363770	-81.699960
-66.865234	45.664062	-81.264376
-64.826660	47.702637	-80.832437
-64.826660	42.810059	-80.403788
-64.826660	44.440918	-79.978195
-62.788086	50.964355	-79.555431
-63.195801	55.041504	-79.134848
-63.603516	53.002930	-78.716576
-58.303223	49.741211	-78.299877
-49.333496	42.810059	-77.880086
-53.002930	30.986328	-77.452641
-60.749512	25.686035	-77.019946
-68.088379	24.055176	-76.589655
-71.350098	23.647461	-76.168858
-64.418945	21.608887	-75.759388
-64.826660	26.909180	-75.358484
-61.157227	24.055176	-74.963610
-63.603516	35.063477	-74.573728
-66.457520	43.625488	-74.190094
-70.534668	47.702637	-73.816039
-72.980957	44.033203	-73.455059
-66.865234	45.256348	-73.107688
-65.642090	44.033203	-72.770784
-58.303223	43.625488	-72.440049
-59.934082	55.856934	-72.111803
-60.341797	48.110352	-71.785314
-64.011230	30.578613	-71.462452
-68.088379	36.694336	-71.146498
-73.388672	38.325195	-70.841969
-81.135254	32.617187	-70.554558
-78.688965	33.432617	-70.288610
-79.912109	29.763184	-70.044505
-71.757812	33.024902	-69.819366
-59.526367	25.686035	-69.605394
-56.672363	34.655762	-69.392991
-53.002930	40.363770	-69.176633
-49.741211	43.217773	-68.953191
-45.256348	39.140625	-68.719366
-40.363770	36.286621	-68.471375
-41.179199	34.655762	-68.206587
-39.548340	28.132324	-67.924756
-42.810059	35.471191	-67.627164
-49.333496	31.394043	-67.317837
-55.856934	28.540039	-67.003630
-58.303223	20.793457	-66.690878
-62.380371	28.540039	-66.383912
-64.011230	26.501465	-66.086007
-65.234375	17.124023	-65.799314
-60.341797	14.677734	-65.523412
-53.410645	23.239746	-65.254032
-49.741211	31.394043	-64.985271
-48.110352	37.509766	-64.713207
-53.410645	40.363770	-64.437846
-47.702637	40.363770	-64.160484
-44.440918	37.509766	-63.879039
-43.217773	27.316895	-63.590459
-43.625488	24.870605	-63.293978
-46.479492	19.570313	-62.990906
-44.033203	20.793457	-62.682827
-46.479492	24.055176	-62.370397
-50.556641	18.754883	-62.055855
-53.818359	23.647461	-61.743269
-52.187500	29.763184	-61.435235
-50.964355	33.432617	-61.131550
-50.556641	18.347168	-60.831156
-45.664062	4.077148	-60.532401
-46.479492	12.231445	-60.233060
-47.294922	19.978027	-59.932831
-51.372070	34.655762	-59.633784
-53.002930	47.294922	-59.338965
-52.595215	52.187500	-59.050312
-48.110352	39.140625	-58.766885
-44.848633	28.132324	-58.485425
-37.509766	15.493164	-58.201320
-35.878906	11.416016	-57.909846
-39.956055	11.416016	-57.609930
-41.179199	11.008301	-57.304305
-40.363770	3.261719	-56.995050
-38.325195	5.300293	-56.682011
-42.402344	16.308594	-56.365476
-42.810059	17.124023	-56.047648
-47.702637	15.493164	-55.731491
-45.664062	21.201172	-55.419404
-48.518066	12.639160	-55.112493
-46.479492	16.308594	-54.811274
-37.509766	19.162598	-54.513130
-40.771484	23.239746	-54.213843
-40.363770	19.978027	-53.913029
-37.102051	24.055176	-53.610859
-39.548340	23.239746	-53.306535
-41.586914	12.639160	-53.001437
-43.217773	5.708008	-52.698063
-50.556641	4.484863	-52.399974
-49.333496	-2.854004	-52.111207
-42.402344	-13.454590	-51.831107
-38.325195	-5.708008	-51.554541
-37.509766	-0.815430	-51.277464
-36.694336	4.077148	-50.998476
-41.179199	7.746582	-50.718492
-43.625488	14.677734	-50.440636
-43.625488	19.162598	-50.167567
-36.694336	19.978027	-49.898178
-34.655762	29.763184	-49.628406
-31.801758	24.870605	-49.354912
-22.832031	24.055176	-49.073761
-15.085449	20.793457	-48.778097
-13.454590	28.540039	-48.462035
-15.493164	29.763184	-48.124475
-21.608887	21.608887	-47.768994
-26.909180	12.639160	-47.401919
-33.024902	8.969727	-47.030160
-40.363770	4.484863	-46.660851
-50.556641	2.446289	-46.302410
-46.479492	13.046875	-45.960934
-34.655762	21.201172	-45.633440
-35.878906	18.347168	-45.312679
-33.432617	15.900879	-44.995577
-30.578613	15.493164	-44.680587
-22.832031	19.978027	-44.363767
-23.647461	24.870605	-44.040928
-22.832031	35.878906	-43.710861
-19.978027	36.694336	-43.373277
-26.909180	19.570313	-43.028978
-30.578613	14.270020	-42.682486
-34.655762	12.231445	-42.339083
-30.986328	3.669434	-42.001133
-29.355469	11.008301	-41.667459
-27.316895	22.424316	-41.335860
-29.355469	27.724609	-41.005628
-30.578613	34.655762	-40.677905
-24.870605	49.741211	-40.352599
-20.793457	51.372070	-40.026195
-13.046875	42.810059	-39.693409
-15.900879	34.655762	-39.350488
-20.793457	38.732910	-38.999002
-25.686035	41.179199	-38.644314
-24.055176	45.256348	-38.290368
-25.278320	38.732910	-37.938253
-22.832031	35.063477	-37.587827
-18.347168	29.355469	-37.237241
-11.008301	20.793457	-36.881942
-10.600586	30.986328	-36.517377
-14.270020	36.694336	-36.143170
-16.308594	44.033203	-35.762509
-22.832031	40.363770	-35.379834
-19.570313	34.248047	-34.998744
-23.647461	29.763184	-34.620639
-22.832031	35.878906	-34.246852
-21.608887	43.625488	-33.877902
-20.793457	48.925781	-33.512885
-20.793457	38.325195	-33.151258
-25.686035	27.724609	-32.794318
-23.647461	28.540039	-32.444263
-23.647461	29.763184	-32.101362
-21.608887	23.239746	-31.764580
-19.162598	18.347168	-31.432282
-20.793457	18.754883	-31.103219
-17.124023	14.270020	-30.776843
-21.201172	19.570313	-30.452945
-28.132324	28.947754	-30.134752
-21.608887	26.909180	-29.825340
-21.201172	23.239746	-29.522921
-17.124023	18.347168	-29.224498
-11.823730	24.055176	-28.926561
-11.416016	38.732910	-28.625440
-15.493164	40.363770	-28.321059
-15.085449	30.986328	-28.015813
-9.377441	26.909180	-27.709421
-1.223145	28.947754	-27.397007
-2.446289	13.454590	-27.073711
4.892578	8.154297	-26.736938
0.000000	5.300293	-26.385404
-8.969727	9.377441	-26.023146
-19.978027	10.600586	-25.659919
-26.909180	9.785156	-25.306111
-21.201172	10.600586	-24.966699
-19.162598	4.484863	-24.639674
-24.870605	3.669434	-24.323748
-28.132324	15.493164	-24.022070
-31.801758	19.570313	-23.738488
-33.840332	17.124023	-23.475801
-26.501465	21.201172	-23.233444
-28.540039	28.132324	-23.007966
-22.832031	25.686035	-22.796483
-22.424316	22.424316	-22.596013
-16.716309	17.124023	-22.403055
-15.900879	20.385742	-22.214150
-19.978027	16.308594	-22.028457
-24.462891	3.669434	-21.849130
-24.870605	2.446289	-21.679605
-29.355469	2.446289	-21.522186
-26.909180	18.347168	-21.378310
-30.578613	19.978027	-21.248372
-23.647461	14.270020	-21.131341
-20.793457	16.308594	-21.023328
-20.793457	18.347168	-20.920718
-23.647461	21.201172	-20.823373
-24.870605	24.055176	-20.732978
-30.986328	29.355469	-20.652313
-20.793457	19.978027	-20.581877
-9.785156	16.308594	-20.514641
-6.931152	14.270020	-20.441319
-1.223145	9.377441	-20.356375
4.484863	20.793457	-20.255175
3.669434	26.909180	-20.134279
-8.562012	24.462891	-19.996848
-19.978027	8.969727	-19.853416
-28.540039	0.815430	-19.715864
-24.870605	0.407715	-19.590604
-17.124023	4.892578	-19.475497
-16.716309	9.785156	-19.365063
-11.416016	17.124023	-19.255565
-8.154297	20.793457	-19.143326
-3.669434	27.724609	-19.024306
-10.600586	32.209473	-18.897543
-11.008301	23.239746	-18.766093
-14.270020	20.793457	-18.633198
-8.562012	17.124023	-18.499383
-4.077148	14.677734	-18.361512
-2.446289	7.746582	-18.215629
-8.562012	11.416016	-18.061821
-12.639160	13.046875	-17.904466
-16.308594	15.493164	-17.748601
-17.531738	12.231445	-17.597644
-22.832031	5.708008	-17.454529
-23.647461	11.416016	-17.322371
-16.716309	23.239746	-17.200813
-17.531738	35.063477	-17.086289
-11.416016	37.509766	-16.975601
-8.154297	33.024902	-16.864838
-5.708008	28.540039	-16.750155
-2.854004	24.462891	-16.628959
4.484863	29.763184	-16.497603
14.270020	22.832031	-16.349509
3.669434	15.900879	-16.181307
-3.261719	14.677734	-15.998905
-8.969727	21.608887	-15.811064
-8.154297	34.248047	-15.622832
-11.008301	30.986328	-15.436245
-16.308594	26.501465	-15.254104
-22.424316	24.870605	-15.081539
-23.239746	24.870605	-14.923116
-15.085449	30.578613	-14.778254
-5.708008	24.055176	-14.639958
0.815430	34.248047	-14.499293
3.261719	43.625488	-14.349982
9.785156	42.810059	-14.187859
11.823730	29.763184	-14.009072
15.493164	20.385742	-13.810813
9.377441	20.385742	-13.593318
11.416016	16.716309	-13.359400
4.892578	14.677734	-13.112297
2.446289	18.347168	-12.856402
-0.815430	9.785156	-12.596238
-3.261719	7.338867	-12.335269
-0.815430	8.969727	-12.075307
0.407715	6.931152	-11.815615
0.000000	13.454590	-11.555274
0.000000	26.909180	-11.294483
0.407715	39.956055	-11.033533
-2.854004	49.741211	-10.773351
2.854004	48.925781	-10.514280
4.077148	37.102051	-10.254081
8.969727	31.801758	-9.989649
11.823730	35.471191	-9.717814
9.377441	34.248047	-9.437055
5.708008	31.394043	-9.149569
5.708008	29.355469	-8.858535
-4.077148	19.978027	-8.567953
-1.223145	12.231445	-8.282500
-4.892578	13.046875	-8.004278
-4.077148	12.231445	-7.734215
-3.261719	3.669434	-7.472548
-2.854004	7.746582	-7.218420
0.815430	13.046875	-6.970364
0.815430	24.870605	-6.726332
-2.854004	27.316895	-6.486398
-0.815430	29.763184	-6.252020
1.630859	26.909180	-6.022442
-6.523437	19.570313	-5.798011
-13.046875	23.647461	-5.584083
-8.154297	18.347168	-5.384692
-2.854004	18.754883	-5.197139
1.630859	12.639160	-5.015837
11.008301	5.300293	-4.834481
11.008301	5.708008	-4.647159
0.815430	8.969727	-4.454554
-9.785156	12.231445	-4.265245
-11.008301	5.300293	-4.087852
-12.639160	1.223145	-3.925876
-7.338867	9.377441	-3.778574
-2.446289	17.531738	-3.641796
3.669434	23.239746	-3.509637
12.231445	21.201172	-3.375282
22.424316	26.909180	-3.230187
33.024902	29.763184	-3.064603
31.394043	34.655762	-2.871815
29.763184	30.986328	-2.651757
24.462891	29.763184	-2.408575
24.462891	15.900879	-2.146785
13.454590	7.338867	-1.871789
2.854004	4.484863	-1.593043
-2.854004	9.785156	-1.320970
-1.630859	28.540039	-1.061015
0.000000	37.509766	-0.813332
-1.223145	34.248047	-0.576768
-4.892578	20.385742	-0.352245
-3.669434	20.793457	-0.141381
-3.261719	18.347168	0.056006
-4.077148	25.686035	0.240642
1.630859	29.763184	0.414087
0.000000	23.239746	0.579024
4.892578	24.870605	0.737592
8.154297	24.462891	0.892912
12.639160	23.239746	1.049146
15.493164	14.677734	1.210049
16.716309	11.416016	1.378242
3.669434	16.308594	1.551180
-11.823730	19.978027	1.717865
-12.231445	19.162598	1.866731
-3.669434	12.639160	1.996394
-1.223145	21.201172	2.112622
-4.892578	28.947754	2.218471
2.854004	28.540039	2.315051
11.823730	33.432617	2.408141
19.570313	37.102051	2.506586
20.793457	48.518066	2.616786
21.608887	39.548340	2.740984
19.162598	32.617187	2.878524
21.608887	34.248047	3.028226
18.347168	21.201172	3.189169
19.570313	15.493164	3.359925
16.716309	23.239746	3.538905
6.523437	19.162598	3.721694
-2.854004	21.201172	3.899357
0.000000	25.686035	4.065087
0.815430	24.870605	4.218501
0.815430	23.239746	4.361172
-0.815430	23.239746	4.493225
5.300293	28.132324	4.615750
12.231445	32.209473	4.733657
15.493164	40.363770	4.853135
15.493164	46.479492	4.977523
9.785156	42.402344	5.105824
12.231445	39.956055	5.235370
14.270020	34.655762	5.366290
13.454590	30.986328	5.499883
15.493164	21.201172	5.636531
9.785156	23.647461	5.775309
11.823730	18.754883	5.914047
5.708008	16.308594	6.050565
4.077148	26.909180	6.181716
4.077148	28.947754	6.305140
3.669434	31.801758	6.420524
6.931152	28.947754	6.528752
7.338867	35.878906	6.631749
10.600586	45.256348	6.731572
10.600586	48.110352	6.830080
13.454590	45.256348	6.928835
16.308594	41.586914	7.029973
22.832031	37.102051	7.137241
20.793457	30.986328	7.253891
19.162598	22.832031	7.379588
14.677734	27.724609	7.511222
4.892578	19.978027	7.643028
0.407715	6.523437	7.767364
-2.446289	10.600586	7.878761
0.815430	26.909180	7.975868
-3.261719	19.978027	8.059122
-1.223145	12.231445	8.128315
1.630859	16.308594	8.184761
6.931152	28.947754	8.232406
18.754883	38.325195	8.278237
22.832031	36.694336	8.330965
18.754883	34.655762	8.394399
15.085449	23.647461	8.465952
16.308594	26.909180	8.542503
17.531738	23.239746	8.623746
18.754883	17.124023	8.710668
25.278320	13.046875	8.805596
11.823730	16.308594	8.908285
4.484863	12.231445	9.010990
-2.854004	2.446289	9.104285
-9.785156	4.077148	9.180894
-15.900879	-1.223145	9.234318
-11.008301	4.077148	9.261801
-4.892578	16.308594	9.267062
-6.523437	24.055176	9.255171
-2.854004	20.793457	9.228631
6.931152	19.162598	9.192205
12.639160	22.832031	9.153983
17.531738	19.162598	9.120941
21.201172	20.793457	9.097912
22.832031	15.493164	9.088109
22.424316	8.562012	9.092656
12.639160	-2.446289	9.108542
13.454590	1.630859	9.130202
9.377441	1.630859	9.154140
5.708008	0.000000	9.177334
3.261719	1.630859	9.196154
1.630859	0.000000	9.208099
2.854004	-0.815430	9.212291
1.223145	6.931152	9.208862
4.892578	14.270020	9.198590
7.338867	12.231445	9.183938
6.931152	19.162598	9.167261
9.377441	21.608887	9.149740
17.531738	19.162598	9.134751
25.278320	24.462891	9.129158
25.686035	30.578613	9.138859
15.900879	25.686035	9.162830
6.931152	19.978027	9.193009
4.892578	4.077148	9.221265
0.815430	-4.484863	9.243156
-3.261719	-8.969727	9.255200
-4.892578	8.562012	9.254189
-11.008301	14.270020	9.237180
-8.969727	15.493164	9.201811
0.407715	17.531738	9.150879
8.154297	22.424316	9.092640
12.639160	31.801758	9.035197
23.239746	33.432617	8.985750
24.462891	34.655762	8.951058
28.132324	23.647461	8.934880
32.617187	27.316895	8.939820
31.801758	24.055176	8.968024
32.209473	7.338867	9.019263
32.617187	7.338867	9.092548
33.432617	5.708008	9.187338
30.578613	10.600586	9.302345
20.385742	7.746582	9.432568
14.677734	6.931152	9.569577
4.484863	10.600586	9.704568
-2.854004	14.677734	9.828706
-8.154297	19.570313	9.934429
-2.854004	24.462891	10.019139
5.300293	27.316895	10.087233
16.716309	34.655762	10.148069
24.055176	39.548340	10.211978
34.655762	32.617187	10.288394
38.325195	24.870605	10.385131
38.325195	21.201172	10.505879
36.286621	17.124023	10.649851
29.355469	10.600586	10.812951
20.793457	17.124023	10.987716
19.162598	21.201172	11.166686
17.531738	21.608887	11.345948
17.124023	31.801758	11.523908
19.570313	29.355469	11.700438
23.647461	25.278320	11.877666
15.900879	27.724609	12.056125
17.531738	32.617187	12.233000
17.531738	40.363770	12.406999
25.278320	51.779785	12.580534
29.355469	45.664062	12.758584
32.617187	28.132324	12.945790
30.986328	31.801758	13.143898
27.316895	21.201172	13.351242
31.801758	15.493164	13.566006
30.986328	19.978027	13.788808
27.724609	25.686035	14.018941
17.531738	26.909180	14.251227
19.570313	22.424316	14.479647
15.493164	15.900879	14.701459
19.570313	12.231445	14.916194
21.201172	18.347168	15.125446
32.209473	29.763184	15.334063
32.617187	34.655762	15.548175
36.694336	38.732910	15.771483
42.402344	48.925781	16.007086
47.702637	48.925781	16.259640
53.002930	40.771484	16.533789
57.080078	29.763184	16.833514
60.749512	16.716309	17.161840
55.856934	17.531738	17.518839
50.964355	18.347168	17.899944
46.887207	11.416016	18.298737
44.848633	11.416016	18.710034
49.333496	7.746582	19.131873
55.856934	15.493164	19.566866
59.526367	28.947754	20.019530
56.672363	31.394043	20.491481
60.749512	32.209473	20.981884
69.311523	38.325195	21.493028
70.942383	27.724609	22.029436
72.573242	31.801758	22.592933
76.242676	40.363770	23.183947
88.474121	44.440918	23.806182
102.336426	48.110352	24.468599
126.391602	39.548340	25.185497
128.837891	26.909180	25.970575
99.074707	11.008301	26.819706
96.220703	3.669434	27.713351
99.890137	2.854004	28.640199
106.821289	11.823730	29.600771
119.052734	6.523437	30.600348
133.322754	-0.407715	31.648107
148.408203	0.407715	32.755438
165.124512	14.677734	33.934542
171.240234	25.278320	35.195280
191.218262	30.578613	36.545481
203.449707	28.540039	37.994987
218.535156	37.102051	39.553412
233.620605	38.732910	41.229284
257.268066	33.024902	43.033622
281.323242	30.986328	44.981412
291.923828	22.424316	47.085744
296.000977	7.338867	49.350271
304.155273	8.562012	51.772424
311.901855	14.270020	54.349905
331.064453	16.308594	57.084213
339.218750	9.785156	59.979613
343.295898	5.300293	63.036152
360.012207	18.347168	66.251991
374.689941	32.209473	69.630243
400.375977	36.694336	73.178847
414.238281	31.394043	76.907349
425.654297	30.986328	80.820706
440.739746	34.655762	84.920034
449.301758	50.556641	89.205771
467.648926	48.518066	93.678247
483.957520	35.878906	98.340474
488.034668	30.578613	103.193413
488.034668	21.608887	108.229749
482.326660	13.454590	113.435451
485.588379	17.124023	118.795233
494.965820	19.978027	124.299159
496.188965	23.239746	129.941018
495.373535	19.570313	135.711524
497.819824	32.617187	141.599319
507.604980	48.518066	147.596544
516.574707	49.741211	153.700077
516.166992	37.102051	159.905865
521.467285	25.686035	166.206286
521.875000	27.316895	172.593219
523.098145	34.248047	179.057958
516.574707	38.732910	185.589221
517.390137	47.702637	192.174241
515.351562	50.556641	198.801840
516.574707	44.033203	205.462589
514.128418	39.548340	212.147453
506.381836	21.608887	218.845316
511.274414	6.931152	225.545123
507.604980	14.677734	232.239318
498.227539	21.201172	238.918016
481.918945	19.978027	245.564726
474.172363	20.793457	252.160848
476.210937	31.801758	258.693924
477.841797	37.509766	265.159411
464.387207	44.033203	271.551437
461.533203	47.702637	277.859222
455.417480	46.479492	284.073318
448.078613	56.672363	290.185548
440.739746	55.856934	296.186716
436.662598	36.694336	302.068695
437.478027	16.308594	307.826849
435.031738	15.085449	313.459454
429.731445	24.055176	318.963817
415.053711	29.355469	324.332683
397.114258	33.432617	329.552733
384.475098	17.124023	334.608626
373.874512	12.231445	339.488350
368.981934	20.385742	344.184586
361.235352	31.801758	348.693324
359.196777	40.771484	353.012431
351.450195	44.848633	357.140823
348.188477	52.187500	361.077339
337.180176	48.110352	364.819900
333.510742	44.440918	368.365756
323.725586	41.179199	371.712705
312.309570	32.617187	374.857140
303.747559	24.462891	377.794116
292.739258	19.162598	380.519559
279.284668	15.900879	383.028625
266.645508	24.462891	385.315199
251.152344	37.509766	387.372718
232.805176	35.471191	389.193119
216.088867	32.209473	390.767135
220.981445	41.179199	392.091958
224.650879	48.110352	393.176632
227.912598	39.548340	394.034969
215.681152	37.509766	394.675788
207.119141	43.217773	395.100454
203.449707	47.702637	395.309640
202.634277	46.479492	395.308499
194.887695	28.947754	395.103136
185.510254	16.308594	394.696273
180.617676	12.639160	394.089222
172.463379	18.347168	393.284515
153.708496	19.162598	392.281460
139.030762	18.347168	391.074247
131.691895	18.347168	389.658830
120.275879	15.493164	388.035419
115.791016	24.870605	386.206043
113.344727	30.986328	384.175959
107.229004	30.986328	381.952326
107.229004	35.878906	379.542393
107.636719	37.509766	376.955637
104.375000	39.548340	374.202144
103.967285	33.432617	371.290651
101.113281	35.063477	368.229555
92.143555	30.986328	365.024889
79.504395	30.578613	361.677744
65.642090	25.686035	358.185454
61.564941	19.978027	354.546593
53.002930	18.754883	350.763593
50.556641	13.454590	346.840749
45.256348	16.308594	342.783593
35.471191	13.046875	338.596475
31.801758	12.231445	334.282189
30.578613	19.978027	329.846209
31.394043	24.055176	325.297320
21.608887	27.724609	320.642954
18.347168	33.024902	315.886997
15.900879	38.732910	311.034124
7.746582	35.878906	306.089541
6.931152	25.278320	301.057459
2.446289	12.639160	295.943382
-0.815430	3.669434	290.752971
-8.154297	-4.484863	285.490320
-8.154297	4.484863	280.159520
-16.716309	8.562012	274.765082
-25.686035	6.523437	269.308705
-33.432617	-0.407715	263.789932
-35.471191	8.562012	258.210427
-35.471191	24.870605	252.575699
-36.694336	25.686035	246.893315
-41.179199	25.686035	241.169583
-43.625488	28.947754	235.409072
-35.878906	32.209473	229.619073
-38.325195	24.462891	223.809790
-45.664062	25.686035	217.987024
-52.187500	24.055176	212.151291
-60.749512	15.900879	206.301707
-56.264648	15.900879	200.440012
-55.041504	16.308594	194.573343
-47.294922	8.969727	188.711945
-51.372070	2.854004	182.865058
-52.187500	4.077148	177.037847
-57.487793	8.562012	171.232652
-63.195801	3.669434	165.450076
-62.788086	16.308594	159.690887
-64.826660	20.793457	153.958256
-64.418945	19.162598	148.256146
-65.234375	16.308594	142.588629
-65.234375	7.338867	136.959773
-69.311523	11.823730	131.372454
-69.719238	27.724609	125.828413
-71.757812	35.471191	120.329693
-69.719238	28.947754	114.879374
-68.088379	19.162598	109.481956
-72.980957	13.046875	104.140819
-77.873535	12.231445	98.855598
-82.766113	8.969727	93.624172
-89.289551	5.300293	88.444031
-90.512695	4.484863	83.313259
-103.559570	6.931152	78.229228
-103.151855	17.124023	73.188093
-105.190430	26.909180	68.189459
-101.520996	35.471191	63.236652
-97.443848	28.540039	58.335263
-88.474121	29.763184	53.493574
-77.873535	24.055176	48.722536
-77.873535	18.347168	44.031886
-75.834961	21.608887	39.426230
-80.727539	29.763184	34.906342
-79.096680	29.355469	30.471478
-83.173828	16.716309	26.120946
-81.135254	11.416016	21.854319
-85.212402	15.493164	17.671205
-83.581543	15.493164	13.571038
-91.735840	9.785156	9.552011
-97.443848	-3.669434	5.609316
-104.375000	-7.746582	1.736675
-105.598145	4.484863	-2.070480
-103.559570	16.308594	-5.813044
-97.036133	24.055176	-9.487547
-99.482422	21.201172	-13.089893
-101.520996	21.201172	-16.619673
-105.190430	22.424316	-20.079143
-108.452148	25.686035	-23.471176
-105.598145	22.832031	-26.797191
-103.559570	18.754883	-30.055505
-98.666992	14.677734	-33.242658
-102.744141	12.231445	-36.356490
-106.821289	6.931152	-39.398980
-108.044434	8.562012	-42.373697
-100.705566	13.046875	-45.280373
-94.589844	11.416016	-48.113896
-94.589844	12.639160	-50.869463
-92.958984	23.647461	-53.545675
-92.551270	27.316895	-56.142353
-97.443848	25.686035	-58.661015
-96.628418	24.870605	-61.104798
-98.666992	19.570313	-63.475920
-96.220703	15.493164	-65.775397
-86.843262	21.201172	-68.000846
-84.396973	21.201172	-70.147070
-87.658691	23.239746	-72.212514
-91.735840	15.493164	-74.200808
-95.405273	11.416016	-76.117324
-101.520996	2.854004	-77.967904
-108.452148	-3.261719	-79.759590
-109.675293	1.630859	-81.498737
-102.744141	3.669434	-83.186542
-99.890137	11.823730	-84.819487
-99.074707	21.201172	-86.394808
-94.589844	19.978027	-87.911105
-94.589844	24.055176	-89.366888
-101.520996	24.055176	-90.764013
-103.967285	17.124023	-92.107954
-100.297852	13.046875	-93.401850
-93.366699	16.308594	-94.643504
-93.366699	18.347168	-95.829374
-97.036133	8.562012	-96.959883
-102.744141	-3.261719	-98.039780
-107.636719	-7.746582	-99.075472
-108.452148	-9.785156	-100.072158
-99.074707	-6.931152	-101.029807
-98.666992	-6.931152	-101.944364
-97.851562	-14.677734	-102.813928
-104.375000	-7.746582	-103.640802
-103.967285	0.000000	-104.429159
-100.705566	13.046875	-105.180556
-100.297852	11.416016	-105.893953
-99.074707	14.270020	-106.568929
-100.297852	13.046875	-107.206086
-97.443848	14.677734	-107.806042
-88.066406	19.978027	-108.366210
-84.804687	12.639160	-108.881271
-80.727539	0.000000	-109.347480
-76.650391	-1.630859	-109.762491
-72.980957	-8.969727	-110.124010
-75.834961	-12.639160	-110.431834
-75.427246	-8.154297	-110.688498
-79.504395	-5.708008	-110.897660
-87.658691	-8.969727	-111.065428
-89.289551	-3.261719	-111.199286
-91.735840	11.416016	-111.304270
-95.405273	25.278320	-111.384257
-103.151855	39.548340	-111.444900
-91.328125	52.187500	-111.488941
-79.912109	50.556641	-111.509909
-79.504395	39.956055	-111.499617
-82.358398	26.909180	-111.457029
-89.697266	3.669434	-111.386974
-85.212402	-11.823730	-111.294197
-86.843262	-5.300293	-111.179824
-80.319824	0.815430	-111.042921
-85.212402	0.000000	-110.882938
-87.658691	-1.223145	-110.702588
-92.143555	-1.223145	-110.506732
-92.958984	-4.484863	-110.299493
-93.366699	-4.484863	-110.083316
-89.697266	3.669434	-109.858299
-88.881836	15.493164	-109.623044
-90.920410	19.978027	-109.377405
-83.581543	21.201172	-109.121040
-86.843262	24.055176	-108.852241
-85.620117	20.793457	-108.571318
-90.920410	22.832031	-108.280722
-86.843262	13.046875	-107.982589
-88.066406	7.746582	-107.677146
-82.766113	6.931152	-107.363224
-86.843262	9.377441	-107.040145
-88.066406	12.639160	-106.709735
-100.705566	11.416016	-106.377705
-108.452148	15.900879	-106.053476
-111.306152	5.300293	-105.745175
-98.666992	16.308594	-105.452617
-88.474121	21.608887	-105.166828
-75.427246	24.462891	-104.875700
-73.796387	34.248047	-104.569820
-68.088379	52.187500	-104.244394
-68.496094	51.779785	-103.897330
-72.573242	44.440918	-103.529758
-70.534668	32.209473	-103.144709
-71.757812	24.870605	-102.743699
-68.903809	15.493164	-102.327231
-67.680664	16.308594	-101.894944
-62.380371	8.154297	-101.445223
-57.487793	-6.931152	-100.974940
-66.865234	-9.377441	-100.484022
-68.088379	1.630859	-99.977882
-77.873535	8.154297	-99.463418
-74.611816	22.832031	-98.946154
-75.427246	25.278320	-98.427831
-75.427246	27.316895	-97.908613
-78.688965	25.686035	-97.390157
-77.058105	23.647461	-96.874258
-65.234375	28.947754	-96.358238
-59.118652	25.686035	-95.834396
-52.595215	33.432617	-95.295605
-57.080078	32.617187	-94.739253
-59.118652	23.647461	-94.167898
-64.011230	16.308594	-93.586356
-70.942383	13.046875	-93.000624
-75.019531	14.270020	-92.417507
-84.804687	11.416016	-91.844031
-85.212402	16.308594	-91.286682
-81.135254	11.008301	-90.747028
-83.173828	12.231445	-90.223334
-75.019531	13.046875	-89.713286
-75.019531	24.870605	-89.213053
-70.942383	24.055176	-88.719503
-68.088379	30.986328	-88.229959
-64.011230	37.509766	-87.741113
-57.487793	42.810059	-87.248841
-56.264648	39.140625	-86.748997
-56.672363	33.432617	-86.240200
-63.195801	38.732910	-85.724996
-66.457520	25.686035	-85.208609
-73.796387	24.055176	-84.696990
-75.834961	11.416016	-84.195707
-79.912109	6.931152	-83.708891
-68.903809	6.931152	-83.236181
-64.011230	17.124023	-82.771438
-58.303223	29.763184	-82.307829
-59.526367	21.201172	-81.841824
-59.118652	16.308594	-81.373060
-59.118652	14.270020	-80.902261
-64.826660	17.124023	-80.431405
-68.088379	19.162598	-79.964847
-68.088379	22.424316	-79.506094
-64.826660	27.724609	-79.055274
-66.457520	28.540039	-78.611218
-61.157227	21.608887	-78.172692
-61.157227	11.823730	-77.737551
-62.380371	4.077148	-77.305027
-64.011230	-4.077148	-76.876527
-62.380371	-1.223145	-76.453069
-60.341797	5.708008	-76.033906
-66.457520	4.484863	-75.619390
-71.350098	4.484863	-75.213709
-76.650391	10.600586	-74.822459
-71.350098	24.870605	-74.448073
-63.195801	29.355469	-74.086648
-60.341797	28.947754	-73.731548
-56.264648	24.055176	-73.378150
-49.333496	15.085449	-73.022033
-43.217773	25.686035	-72.657376
-42.402344	20.385742	-72.279702
-45.256348	15.493164	-71.888712
-50.556641	7.746582	-71.488098
-48.518066	11.823730	-71.081716
-51.372070	12.231445	-70.671325
-55.856934	8.562012	-70.259679
-63.195801	7.338867	-69.852303
-64.011230	2.854004	-69.454679
-64.826660	3.669434	-69.069353
-67.680664	15.493164	-68.697565
-72.165527	23.239746	-68.341984
-77.465820	37.509766	-68.006748
-68.088379	41.179199	-67.692785
-59.934082	30.578613	-67.393787
-51.779785	23.647461	-67.100499
-48.518066	18.347168	-66.805688
-39.548340	11.823730	-66.503521
-39.956055	8.562012	-66.189186
-40.363770	9.377441	-65.861531
-49.333496	22.424316	-65.524180
-53.410645	18.754883	-65.183818
-55.856934	-0.407715	-64.846080
-53.410645	-5.708008	-64.512915
-53.002930	-7.746582	-64.183718
-53.002930	-3.669434	-63.857796
-50.556641	11.823730	-63.534595
-44.440918	25.686035	-63.211439
-48.110352	24.870605	-62.885773
-48.518066	25.686035	-62.558482
-53.818359	22.832031	-62.232555
-54.633789	16.308594	-61.911377
-49.741211	21.608887	-61.595606
-45.664062	22.832031	-61.281902
-46.479492	17.531738	-60.967289
-45.664062	17.124023	-60.651280
-41.586914	12.231445	-60.332986
-43.625488	0.000000	-60.011024
-43.625488	2.854004	-59.685898
-47.294922	12.231445	-59.359594
-54.633789	7.746582	-59.036363
-57.080078	14.270020	-58.721867
-53.002930	19.978027	-58.418184
-47.294922	24.055176	-58.122143
-44.033203	21.201172	-57.828783
-36.694336	26.909180	-57.533149
-33.024902	22.424316	-57.229979
-33.432617	17.124023	-56.916184
-34.655762	23.239746	-56.592148
-32.617187	19.978027	-56.258888
-33.432617	13.454590	-55.916637
-37.509766	9.785156	-55.567127
-46.887207	8.562012	-55.215873
-55.041504	3.261719	-54.871463
-47.294922	1.630859	-54.538661
-37.509766	5.300293	-54.212792
-36.694336	21.608887	-53.886496
-38.732910	19.570313	-53.557670
-42.810059	8.562012	-53.228703
-39.548340	14.677734	-52.901768
-34.655762	32.617187	-52.575187
-36.694336	38.325195	-52.246397
-38.325195	44.033203	-51.916057
-33.432617	34.248047	-51.584692
-38.732910	25.686035	-51.251947
-39.548340	28.947754	-50.919947
-41.179199	28.132324	-50.591256
-40.363770	27.724609	-50.266928
-38.732910	24.870605	-49.946676
-39.548340	22.424316	-49.629795
-37.509766	12.231445	-49.315931
-38.732910	8.969727	-49.004741
-38.325195	7.338867	-48.696430
-35.471191	19.570313	-48.390550
-41.179199	26.909180	-48.087204
-43.625488	27.724609	-47.789489
-42.402344	36.286621	-47.499925
-43.217773	41.179199	-47.218662
-49.333496	48.110352	-46.947332
-43.625488	38.325195	-46.687698
-37.102051	34.655762	-46.436398
-22.832031	27.724609	-46.184642
-17.124023	22.832031	-45.922005
-16.716309	14.677734	-45.642402
-16.716309	17.124023	-45.345182
-15.085449	17.124023	-45.030919
-17.531738	22.424316	-44.700503
-24.870605	28.947754	-44.357797
-32.617187	24.870605	-44.010251
-31.801758	29.763184	-43.664233
-29.355469	35.878906	-43.321002
-24.055176	19.978027	-42.977899
-27.724609	16.308594	-42.632818
-26.909180	30.986328	-42.286530
-24.462891	48.925781	-41.939347
-20.793457	48.925781	-41.589212
-18.754883	33.432617	-41.233520
-17.124023	25.686035	-40.870434
-21.608887	19.162598	-40.500455
-25.278320	18.347168	-40.127176
-28.947754	24.462891	-39.755210
-32.209473	22.832031	-39.388636
-32.617187	28.947754	-39.030380
-28.947754	30.986328	-38.680548
-29.355469	31.801758	-38.337412
-31.801758	23.239746	-38.000923
-33.432617	27.724609	-37.672954
-31.801758	40.363770	-37.354533
-25.686035	45.256348	-37.043529
-24.870605	51.779785	-36.736076
-15.900879	47.294922	-36.427945
-15.085449	30.986328	-36.114350
-13.046875	24.870605	-35.792547
-12.639160	26.909180	-35.461855
-4.484863	22.424316	-35.120132
-7.746582	17.531738	-34.764703
-5.708008	13.454590	-34.395597
-8.969727	11.008301	-34.014466
-10.600586	9.785156	-33.623861
-13.046875	20.385742	-33.226978
-18.754883	28.132324	-32.827733
-19.978027	33.432617	-32.430613
-20.793457	39.548340	-32.038296
-24.870605	32.617187	-31.652799
-15.900879	33.432617	-31.274215
-14.677734	35.878906	-30.898669
-9.785156	29.355469	-30.522131
-13.454590	29.763184	-30.143116
-12.639160	28.947754	-29.762561
-5.708008	24.462891	-29.379652
0.000000	26.501465	-28.989543
-6.523437	27.724609	-28.589863
-7.746582	22.832031	-28.183715
-7.338867	9.377441	-27.774068
-15.900879	4.077148	-27.363868
-22.832031	9.377441	-26.959783
-20.793457	15.493164	-26.567314
-23.239746	19.162598	-26.187742
-24.055176	15.900879	-25.821843
-32.617187	19.570313	-25.472702
-27.724609	23.239746	-25.143356
-24.870605	23.647461	-24.832181
-20.793457	30.578613	-24.534826
-18.347168	22.832031	-24.247442
-15.085449	22.832031	-23.966667
-13.046875	16.308594	-23.689604
-8.562012	12.231445	-23.413270
-6.523437	11.416016	-23.134496
-8.969727	11.416016	-22.852078
-3.261719	11.416016	-22.565729
-8.154297	7.338867	-22.274856
-8.154297	4.077148	-21.981041
-15.085449	0.815430	-21.687832
-11.008301	14.677734	-21.398080
-11.823730	27.724609	-21.111826
-15.493164	31.801758	-20.829534
-11.823730	27.724609	-20.552499
-4.484863	35.878906	-20.277881
2.446289	28.132324	-19.999220
3.669434	20.385742	-19.711100
4.484863	24.462891	-19.411577
8.154297	24.870605	-19.099767
8.562012	23.239746	-18.774305
6.523437	23.647461	-18.435511
-0.407715	19.978027	-18.087128
-11.416016	7.746582	-17.737026
-8.969727	-3.669434	-17.392612
-4.484863	0.000000	-17.054419
-8.154297	8.562012	-16.720486
-11.008301	15.085449	-16.392469
-18.347168	19.570313	-16.074836
-8.154297	27.724609	-15.769379
-15.900879	23.647461	-15.474474
-15.900879	21.608887	-15.191346
-8.969727	24.055176	-14.919972
-3.669434	26.909180	-14.655071
-0.407715	27.724609	-14.391166
4.077148	22.832031	-14.124206
2.854004	14.677734	-13.851716
2.854004	5.300293	-13.573699
1.630859	4.077148	-13.291340
-3.261719	6.523437	-13.007060
-6.931152	18.347168	-12.725101
-22.424316	26.501465	-12.452936
-28.540039	22.832031	-12.201118
-31.394043	23.239746	-11.977023
-16.308594	24.055176	-11.778772
-7.746582	29.763184	-11.595978
2.854004	26.909180	-11.416886
4.484863	26.501465	-11.233272
3.669434	23.239746	-11.042104
1.630859	24.462891	-10.844461
4.484863	28.947754	-10.641381
8.969727	35.063477	-10.431181
11.008301	35.471191	-10.210763
5.300293	31.801758	-9.980072
9.377441	23.647461	-9.741208
6.931152	9.377441	-9.494793
-1.223145	5.300293	-9.243783
-12.639160	11.008301	-8.996577
-19.162598	12.231445	-8.763114
-23.647461	17.124023	-8.550623
-24.870605	19.978027	-8.362766
-15.493164	23.239746	-8.197984
-8.154297	26.501465	-8.048869
1.223145	34.655762	-7.906086
-3.261719	33.432617	-7.763822
-2.446289	24.055176	-7.621882
-2.446289	21.201172	-7.481149
-5.708008	14.677734	-7.342360
-8.969727	14.677734	-7.208143
-14.270020	16.308594	-7.082394
-17.124023	19.978027	-6.969254
-11.416016	23.239746	-6.869661
-8.969727	19.978027	-6.780214
-8.969727	11.823730	-6.697765
-13.454590	-4.892578	-6.622617
-9.785156	5.708008	-6.555910
-7.746582	24.055176	-6.496048
-3.261719	35.878906	-6.439570
-4.892578	36.286621	-6.383919
-2.446289	27.724609	-6.328151
-4.077148	19.162598	-6.271903
-4.892578	17.531738	-6.215683
-2.446289	22.424316	-6.159763
-4.077148	21.201172	-6.103547
3.669434	11.416016	-6.045285
6.931152	3.261719	-5.980633
10.600586	4.892578	-5.905238
1.630859	10.600586	-5.819235
-1.630859	8.562012	-5.727801
-7.746582	16.716309	-5.636956
-9.785156	14.270020	-5.551373
-9.377441	13.046875	-5.473474
-8.154297	16.308594	-5.402993
-4.077148	23.647461	-5.337846
-4.077148	28.132324	-5.275399
5.708008	34.655762	-5.211951
9.377441	39.548340	-5.141511
13.454590	35.471191	-5.058900
9.377441	34.655762	-4.962721
15.493164	33.432617	-4.853155
16.308594	17.531738	-4.728567
13.454590	18.347168	-4.588483
9.377441	17.531738	-4.436110
6.523437	21.201172	-4.275806
4.484863	15.900879	-4.111204
-2.854004	17.124023	-3.946420
-4.484863	20.385742	-3.786457
-4.077148	25.278320	-3.633940
-3.669434	24.055176	-3.488800
0.000000	28.947754	-3.349570
8.562012	36.286621	-3.211844
16.716309	32.617187	-3.068095
19.162598	35.063477	-2.911571
17.531738	37.509766	-2.740015
20.385742	50.556641	-2.553755
15.493164	50.556641	-2.353866
12.639160	33.432617	-2.143747
8.154297	20.385742	-1.928044
2.446289	17.124023	-1.711842
0.000000	19.162598	-1.500212
4.484863	29.763184	-1.294774
0.815430	35.878906	-1.094714
-1.223145	41.179199	-0.901285
-4.892578	33.432617	-0.717387
-4.892578	14.677734	-0.545245
-0.407715	9.377441	-0.384294
7.746582	27.316895	-0.229697
13.454590	30.986328	-0.074366
22.424316	32.209473	0.088998
19.162598	27.724609	0.265216
19.570313	33.024902	0.454269
9.377441	30.986328	0.652056
5.708008	21.608887	0.851763
0.407715	13.046875	1.047095
4.484863	23.239746	1.235367
8.562012	24.870605	1.418523
9.377441	21.608887	1.600028
10.600586	17.124023	1.781587
14.270020	19.978027	1.964829
13.454590	24.055176	2.151519
11.008301	27.724609	2.341197
17.124023	30.578613	2.533637
18.754883	39.548340	2.731509
15.493164	51.372070	2.935966
7.746582	50.964355	3.143175
4.484863	35.878906	3.347010
5.708008	28.947754	3.543982
14.677734	31.394043	3.736337
13.046875	39.140625	3.928688
14.677734	48.110352	4.122760
18.754883	46.479492	4.319772
8.969727	27.724609	4.519382
8.969727	19.978027	4.717194
0.000000	22.424316	4.908155
4.484863	24.055176	5.088840
3.669434	25.686035	5.259310
6.523437	29.355469	5.421348
8.154297	40.771484	5.576881
11.008301	46.479492	5.728396
17.531738	48.925781	5.879557
17.531738	47.702637	6.034398
24.462891	53.818359	6.196124
22.424316	55.856934	6.367359
17.531738	35.878906	6.546957
11.416016	27.724609	6.729638
8.562012	30.986328	6.909822
8.562012	25.686035	7.084327
6.931152	16.308594	7.252049
8.154297	19.162598	7.412583
8.969727	28.947754	7.566515
2.446289	25.686035	7.713019
-0.407715	25.278320	7.848313
-1.630859	32.617187	7.969231
8.154297	38.732910	8.077473
15.085449	34.655762	8.180142
22.832031	31.394043	8.285628
26.501465	28.947754	8.400548
30.578613	13.046875	8.529387
28.132324	19.162598	8.673843
9.377441	25.686035	8.827914
-5.708008	24.462891	8.976546
-9.785156	27.724609	9.105904
-4.484863	29.355469	9.212015
2.446289	21.201172	9.299353
4.484863	26.501465	9.374248
8.154297	29.763184	9.441039
12.639160	35.471191	9.503666
14.677734	30.578613	9.566108
18.347168	37.509766	9.631519
19.978027	43.625488	9.702589
19.570313	48.925781	9.780700
25.278320	47.294922	9.867164
25.278320	43.625488	9.964404
27.316895	35.878906	10.073865
28.132324	45.256348	10.196162
34.248047	44.440918	10.333157
33.024902	35.878906	10.487144
31.801758	26.909180	10.657836
22.424316	13.454590	10.840867
15.900879	10.600586	11.028526
15.085449	18.347168	11.214301
12.231445	22.424316	11.395189
8.562012	20.385742	11.568545
11.823730	24.462891	11.732707
12.639160	29.355469	11.888884
18.347168	42.810059	12.040057
20.385742	36.694336	12.190043
21.201172	43.217773	12.341523
23.647461	48.925781	12.495877
27.316895	46.887207	12.655275
29.355469	53.818359	12.822428
27.316895	48.110352	12.998307
28.132324	39.548340	13.182012
17.531738	24.055176	13.370103
14.677734	14.677734	13.556078
17.124023	6.931152	13.736197
18.754883	19.570313	13.911499
9.785156	28.540039	14.081163
-0.407715	26.501465	14.238303
4.077148	37.509766	14.376789
4.892578	42.402344	14.497213
8.969727	53.410645	14.602945
11.823730	50.556641	14.697645
11.416016	53.002930	14.784178
13.454590	48.925781	14.863893
14.270020	39.548340	14.938194
18.754883	36.694336	15.009389
21.608887	36.694336	15.080866
24.870605	38.732910	15.156070
28.132324	27.316895	15.238074
29.763184	14.677734	15.329483
34.248047	17.124023	15.432665
43.217773	26.909180	15.552120
39.956055	30.986328	15.692019
36.286621	23.647461	15.850967
28.132324	26.909180	16.023007
19.570313	24.055176	16.199868
18.347168	25.686035	16.374185
20.385742	24.870605	16.543532
25.686035	37.102051	16.710100
30.986328	42.810059	16.878551
30.986328	43.217773	17.052800
31.801758	46.479492	17.234009
31.394043	35.878906	17.421992
34.655762	28.540039	17.617102
33.024902	18.754883	17.819989
32.209473	21.608887	18.029873
21.608887	24.870605	18.242575
27.316895	32.617187	18.453461
25.278320	40.363770	18.662068
28.132324	25.278320	18.869460
20.385742	19.570313	19.074403
15.900879	23.239746	19.272294
15.493164	35.878906	19.458746
8.562012	42.402344	19.630868
16.308594	41.586914	19.787416
22.832031	40.363770	19.932894
23.239746	27.724609	20.073219
24.462891	25.686035	20.210727
27.316895	23.239746	20.346901
36.286621	29.763184	20.485834
30.986328	32.617187	20.631326
24.870605	28.947754	20.780891
19.162598	25.686035	20.928083
19.570313	19.978027	21.068357
19.978027	19.978027	21.200701
24.462891	21.608887	21.326833
27.316895	38.732910	21.450117
23.647461	36.694336	21.572266
20.793457	31.394043	21.691274
21.201172	26.909180	21.804803
25.278320	43.625488	21.913517
24.462891	41.179199	22.019555
27.316895	35.063477	22.124320
27.724609	28.540039	22.229150
28.947754	24.462891	22.335220
21.201172	25.686035	22.441074
11.008301	24.870605	22.540186
7.746582	19.978027	22.624511
4.484863	17.124023	22.689382
11.823730	20.793457	22.734969
10.600586	20.793457	22.764777
8.969727	15.493164	22.780345
8.562012	16.308594	22.781017
9.785156	19.162598	22.767147
15.493164	24.055176	22.741442
19.570313	29.763184	22.708858
22.832031	29.355469	22.674238
33.024902	29.355469	22.643173
37.102051	24.870605	22.622819
40.771484	30.986328	22.618493
44.440918	27.724609	22.633438
36.286621	17.124023	22.667514
32.209473	16.716309	22.715427
28.947754	18.347168	22.771359
22.424316	6.523437	22.830390
22.424316	1.630859	22.888033
19.570313	0.815430	22.941827
17.531738	-0.815430	22.989854
18.347168	8.562012	23.030720
17.124023	22.424316	23.064278
24.462891	24.870605	23.092322
23.647461	37.509766	23.118394
31.394043	36.694336	23.146089
31.394043	33.024902	23.179161
36.286621	28.540039	23.220651
35.063477	22.832031	23.272384
38.325195	19.978027	23.335340
39.956055	17.124023	23.410766
33.024902	15.085449	23.497909
23.647461	8.562012	23.590472
18.347168	7.746582	23.679972
15.493164	6.931152	23.760455
17.531738	13.454590	23.829889
13.454590	20.385742	23.887953
15.493164	18.754883	23.934029
10.600586	22.424316	23.967327
11.823730	30.578613	23.986678
16.716309	38.732910	23.993335
25.686035	39.956055	23.993116
27.724609	28.132324	23.992865
34.248047	21.201172	23.997724
35.878906	25.686035	24.011848
30.578613	34.655762	24.035981
26.501465	34.655762	24.066217
22.424316	23.239746	24.097641
20.385742	17.124023	24.126419
14.270020	7.746582	24.148891
4.077148	1.630859	24.158893
0.000000	5.708008	24.148948
-2.446289	5.300293	24.114507
0.815430	13.454590	24.055217
8.562012	26.909180	23.975373
13.454590	30.986328	23.882202
17.531738	33.024902	23.782081
26.501465	37.509766	23.681215
31.394043	37.509766	23.586812
29.355469	28.540039	23.503069
28.132324	24.055176	23.429485
27.316895	22.424316	23.364284
30.578613	19.978027	23.307262
40.363770	19.162598	23.262177
39.956055	16.308594	23.234428
36.286621	13.046875	23.224649
30.986328	8.154297	23.228610
30.578613	14.270020	23.241828
27.316895	15.900879	23.261407
26.501465	28.132324	23.285002
19.978027	34.655762	23.309409
14.677734	35.878906	23.329530
14.677734	22.424316	23.341041
15.493164	25.686035	23.343142
19.570313	28.947754	23.337755
30.986328	33.432617	23.330582
41.179199	28.947754	23.331458
39.548340	28.947754	23.347941
37.102051	15.493164	23.380485
36.286621	11.416016	23.426402
27.724609	15.900879	23.481715
26.909180	14.677734	23.541015
19.570313	17.124023	23.599454
19.978027	17.531738	23.653046
15.900879	16.716309	23.699170
15.900879	25.686035	23.736081
18.347168	32.617187	23.763728
22.424316	41.179199	23.784860
15.085449	37.509766	23.800606
13.046875	37.509766	23.807874
15.900879	34.655762	23.804790
20.793457	23.647461	23.794076
28.540039	23.239746	23.781444
39.140625	24.055176	23.775135
41.179199	20.385742	23.783008
40.771484	27.724609	23.808160
36.694336	26.909180	23.849034
28.132324	18.347168	23.900374
20.385742	22.424316	23.954049
14.270020	24.870605	24.001970
12.639160	19.162598	24.038672
17.531738	19.978027	24.063447
20.385742	20.793457	24.079700
22.424316	30.986328	24.091121
36.286621	34.655762	24.103380
43.217773	44.848633	24.126063
53.002930	44.440918	24.168529
50.556641	39.140625	24.236156
46.887207	33.432617	24.328053
43.217773	23.239746	24.439490
38.732910	22.424316	24.565395
36.286621	24.462891	24.701016
30.578613	32.209473	24.841809
31.394043	34.655762	24.983963
30.578613	32.617187	25.125983
32.209473	30.986328	25.267940
30.578613	16.716309	25.409900
38.325195	12.231445	25.553323
42.810059	26.909180	25.702810
38.325195	29.763184	25.861142
43.625488	35.878906	26.027966
45.664062	39.140625	26.204865
53.410645	43.625488	26.395695
55.449219	48.925781	26.604764
59.934082	48.110352	26.835310
55.041504	34.655762	27.087724
56.264648	21.608887	27.359680
65.642090	18.347168	27.651826
72.573242	16.308594	27.970010
65.642090	13.454590	28.317001
63.195801	20.793457	28.688666
64.011230	30.986328	29.080606
67.272949	35.878906	29.492130
61.564941	42.402344	29.922350
67.680664	53.410645	30.369429
78.688965	42.402344	30.836739
84.804687	45.256348	31.331869
80.727539	40.363770	31.858072
81.135254	32.617187	32.412959
87.250977	41.179199	32.995397
93.774414	46.887207	33.608558
108.859863	37.509766	34.259403
112.937012	34.655762	34.956251
120.275879	37.509766	35.704317
125.168457	31.801758	36.506707
125.576172	32.617187	37.364721
128.430176	28.947754	38.277187
149.631348	30.986328	39.247853
154.523926	34.655762	40.286236
146.777344	25.686035	41.394282
145.554199	36.694336	42.564563
172.871094	47.294922	43.797528
192.849121	42.402344	45.108320
200.595703	20.793457	46.511741
218.942871	14.677734	48.016256
227.912598	4.077148	49.629734
215.273437	3.669434	51.351755
220.573730	5.708008	53.172698
236.882324	7.338867	55.089916
259.714355	-8.969727	57.112990
270.722656	-15.085449	59.254169
280.915527	-4.077148	61.520310
296.000977	7.338867	63.915579
308.232422	6.931152	66.445425
318.017578	-1.223145	69.114049
331.879883	-1.223145	71.924355
343.295898	13.046875	74.879822
359.604492	25.686035	77.984690
376.728516	25.278320	81.244992
395.483398	31.801758	84.668465
405.268555	23.239746	88.261042
416.684570	8.969727	92.024351
430.954590	15.493164	95.959017
447.670898	18.754883	100.068029
457.048340	8.154297	104.354163
461.125488	0.815430	108.815279
470.095215	6.523437	113.445720
476.210937	4.484863	118.240340
473.764648	-4.892578	123.191587
474.172363	-14.677734	128.287589
479.880371	-18.754883	133.517505
476.618652	-13.454590	138.872019
487.626953	0.407715	144.342536
496.596680	7.338867	149.925335
509.235840	13.046875	155.620386
520.244141	22.832031	161.428508
529.213867	7.338867	167.349932
528.398437	-2.446289	173.380693
538.183594	13.046875	179.513999
533.698730	23.239746	185.742505
528.806152	21.201172	192.054284
521.467285	14.677734	198.433252
516.166992	8.969727	204.863130
517.390137	2.854004	211.330463
515.351562	-6.523437	217.825472
517.390137	-5.708008	224.339866
519.428711	-4.484863	230.866991
526.359863	10.600586	237.402840
524.729004	12.231445	243.943898
527.990723	10.600586	250.484877
527.175293	16.308594	257.019978
523.913574	23.647461	263.542174
517.797852	31.394043	270.041660
517.390137	30.578613	276.508460
514.128418	32.617187	282.934582
519.428711	32.617187	289.314688
507.604980	28.540039	295.642983
503.527832	17.124023	301.909274
491.704102	0.815430	308.101431
486.403809	-12.639160	314.207633
479.880371	-6.931152	320.217754
466.833496	4.077148	326.121586
453.378906	4.077148	331.905639
437.885742	2.854004	337.554698
437.478027	9.377441	343.057162
433.808594	23.647461	348.408645
434.216309	23.647461	353.608437
425.654297	25.686035	358.654950
420.761719	21.608887	363.544149
416.276855	17.124023	368.272029
416.276855	18.754883	372.837290
409.753418	23.647461	377.239613
409.345703	34.655762	381.478220
396.298828	32.209473	385.550721
382.844238	19.162598	389.449868
367.758789	4.077148	393.164960
357.565918	3.669434	396.686298
349.819336	11.416016	400.007606
344.926758	22.424316	403.126428
336.772461	32.617187	406.041914
335.549316	33.024902	408.754324
331.472168	39.140625	411.266153
323.725586	23.647461	413.579355
316.386719	13.454590	415.693430
304.562988	18.754883	417.606182
298.039551	21.201172	419.314873
296.816406	29.763184	420.820098
291.108398	28.540039	422.125640
280.100098	26.501465	423.232964
272.761230	17.531738	424.140677
261.752930	15.493164	424.847232
259.714355	3.261719	425.352755
249.929199	11.416016	425.659290
247.075195	21.201172	425.769107
234.028320	25.686035	425.683507
222.612305	39.140625	425.400831
213.234863	48.518066	424.918420
203.857422	41.586914	424.235441
196.926270	38.732910	423.352490
195.295410	34.248047	422.273023
186.733398	30.986328	421.002153
185.917969	33.432617	419.544747
181.840820	47.294922	417.907041
180.209961	45.256348	416.096140
171.240234	23.647461	414.117512
159.416504	7.746582	411.972590
145.554199	11.416016	409.658952
136.584473	16.308594	407.173931
125.168457	19.162598	404.516549
123.945312	21.201172	401.688736
111.306152	17.124023	398.694222
107.229004	15.900879	395.535677
99.074707	20.793457	392.216247
92.958984	33.432617	388.739749
86.435547	43.625488	385.109885
83.989258	46.479492	381.331741
84.396973	39.548340	377.413116
80.319824	44.848633	373.362992
79.096680	46.887207	369.189229
78.688965	41.179199	364.899993
71.757812	34.655762	360.502668
62.380371	19.978027	356.000560
52.595215	13.046875	351.393831
44.033203	6.931152	346.682207
41.586914	4.484863	341.867682
35.878906	15.085449	336.954944
31.801758	19.162598	331.948892
28.947754	24.055176	326.854624
28.132324	27.724609	321.678706
29.763184	22.832031	316.429526
34.248047	41.179199	311.117740
31.394043	44.848633	305.753802
30.986328	33.432617	300.345283
24.870605	31.394043	294.897315
25.278320	42.810059	289.414197
23.647461	40.363770	283.901463
12.639160	25.686035	278.362605
8.969727	15.900879	272.797453
4.484863	14.270020	267.207046
-4.077148	8.969727	261.592835
-11.008301	11.416016	255.954300
-12.639160	19.978027	250.292149
-23.239746	31.801758	244.607939
-23.647461	34.655762	238.902539
-31.801758	31.801758	233.177761
-30.986328	34.248047	227.436323
-28.540039	35.471191	221.683941
-21.608887	43.625488	215.930476
-23.647461	41.586914	210.185771
-28.132324	35.878906	204.455036
-27.316895	35.878906	198.740984
-33.840332	32.209473	193.046397
-41.179199	35.063477	187.371238
-39.548340	39.548340	181.715449
-44.440918	29.355469	176.081737
-49.741211	11.416016	170.471488
-48.518066	7.746582	164.885785
-54.633789	23.239746	159.327029
-60.341797	24.055176	153.795448
-68.903809	15.900879	148.288770
-73.796387	15.493164	142.804368
-73.796387	23.239746	137.342176
-77.058105	31.394043	131.904785
-71.350098	43.217773	126.496572
-62.788086	44.440918	121.126286
-64.826660	42.402344	115.803316
-68.088379	33.432617	110.531430
-69.719238	24.055176	105.311177
-76.650391	18.347168	100.142167
-84.804687	17.124023	95.021298
-88.066406	12.231445	89.944808
-88.066406	-1.223145	84.912163
-83.989258	-2.854004	79.926880
-86.435547	18.347168	74.993550
-94.589844	18.347168	70.112647
-98.666992	18.347168	65.280925
-92.551270	23.239746	60.498555
-88.066406	22.424316	55.771647
-80.727539	34.248047	51.108544
-77.058105	39.548340	46.517254
-77.873535	37.102051	42.002986
-83.581543	21.201172	37.566032
-82.358398	20.793457	33.204657
-79.096680	30.578613	28.920020
-80.727539	27.316895	24.714752
-82.766113	29.763184	20.589140
-90.920410	23.647461	16.540268
-92.551270	6.931152	12.563664
-102.744141	-4.077148	8.654557
-105.598145	2.854004	4.807461
-113.344727	11.823730	1.017397
-111.306152	25.686035	-2.718520
-114.567871	27.724609	-6.400640
-112.937012	27.724609	-10.028280
-113.752441	21.201172	-13.600313
-108.452148	30.578613	-17.114112
-92.143555	40.771484	-20.561770
-88.066406	42.810059	-23.931629
-93.774414	34.655762	-27.218747
-100.297852	14.270020	-30.427061
-98.666992	8.562012	-33.561269
-95.812988	14.677734	-36.621543
-96.628418	17.124023	-39.606303
-101.520996	8.969727	-42.516800
