26.909180	19.162598	30.637094
19.570313	18.347168	30.640773
16.308594	19.162598	30.633725
16.308594	30.986328	30.612800
16.308594	22.424316	30.577794
14.677734	19.570313	30.528952
19.570313	22.424316	30.467381
21.201172	21.608887	30.396293
24.462891	23.239746	30.319193
30.578613	22.424316	30.240183
29.355469	13.046875	30.163181
31.394043	8.562012	30.089676
28.132324	17.124023	30.019481
29.355469	17.124023	29.951661
27.316895	15.493164	29.885431
19.570313	14.677734	29.818004
16.308594	12.231445	29.744043
18.754883	16.308594	29.660815
24.870605	25.686035	29.570864
26.501465	35.878906	29.478871
29.355469	30.986328	29.388239
38.325195	30.578613	29.303287
39.140625	35.471191	29.229522
28.947754	34.655762	29.166621
25.278320	32.209473	29.108055
27.724609	21.201172	29.049725
31.394043	8.969727	28.992967
36.286621	1.223145	28.941625
36.694336	10.600586	28.899150
31.394043	19.570313	28.865290
33.024902	31.394043	28.837443
37.102051	30.986328	28.815900
40.363770	32.617187	28.803826
44.033203	35.063477	28.804552
45.664062	39.548340	28.820712
48.110352	45.256348	28.854052
42.810059	36.694336	28.904080
34.655762	36.694336	28.965703
35.471191	24.055176	29.032869
33.024902	22.424316	29.102899
25.278320	31.801758	29.172485
29.763184	25.686035	29.238039
35.471191	8.562012	29.301495
38.325195	0.407715	29.367809
39.140625	9.377441	29.439995
41.179199	23.239746	29.519424
39.956055	25.278320	29.606648
43.625488	25.686035	29.702080
43.217773	25.278320	29.806747
41.586914	26.909180	29.920441
36.286621	27.316895	30.040278
43.217773	34.655762	30.164461
45.664062	24.870605	30.295554
39.956055	21.201172	30.434714
43.217773	30.578613	30.579928
39.956055	34.655762	30.730128
39.140625	27.724609	30.883859
38.325195	27.724609	31.039299
46.479492	28.132324	31.197708
43.625488	22.424316	31.362104
43.625488	17.124023	31.532687
44.848633	6.931152	31.708567
46.479492	4.484863	31.890392
42.402344	14.677734	32.077807
39.956055	24.055176	32.268007
33.432617	20.793457	32.456596
35.471191	15.900879	32.639914
37.102051	28.947754	32.817792
35.878906	35.471191	32.991363
43.217773	44.440918	33.162351
36.286621	49.333496	33.332409
36.286621	37.509766	33.499685
28.540039	24.870605	33.660275
30.578613	12.231445	33.810778
36.286621	9.785156	33.952029
39.140625	23.239746	34.088583
40.771484	25.686035	34.223937
41.179199	22.424316	34.359715
44.848633	24.462891	34.497363
44.033203	24.462891	34.638473
44.848633	43.625488	34.783488
44.033203	48.110352	34.932079
39.140625	35.471191	35.082430
35.063477	24.055176	35.230445
28.540039	11.416016	35.370936
32.209473	6.523437	35.500560
32.209473	6.931152	35.619889
36.694336	4.077148	35.731404
35.471191	10.600586	35.837379
39.956055	16.308594	35.939667
38.325195	17.124023	36.039933
39.140625	14.677734	36.138700
41.179199	23.239746	36.236467
43.217773	28.540039	36.334997
43.217773	20.385742	36.435759
38.732910	17.124023	36.537903
39.956055	20.793457	36.639224
36.286621	24.870605	36.738155
40.771484	32.617187	36.834269
42.810059	42.810059	36.929523
36.286621	25.686035	37.024391
29.355469	15.493164	37.114077
30.578613	9.377441	37.193689
35.471191	10.600586	37.263707
39.140625	19.162598	37.328347
41.586914	22.832031	37.391640
41.179199	16.308594	37.455725
43.625488	0.815430	37.521567
44.848633	7.746582	37.590519
40.771484	8.562012	37.662580
39.956055	17.531738	37.735499
33.024902	13.046875	37.805841
34.248047	11.823730	37.870113
30.578613	11.823730	37.926382
31.801758	19.162598	37.973666
32.617187	32.209473	38.012215
36.694336	33.432617	38.044206
32.209473	40.771484	38.071079
34.248047	31.801758	38.092288
31.394043	17.124023	38.107213
36.286621	2.854004	38.116442
34.248047	0.407715	38.121509
33.432617	17.124023	38.122598
23.647461	16.716309	38.116353
23.647461	22.832031	38.097759
24.462891	19.978027	38.065038
26.501465	11.008301	38.019828
25.278320	5.708008	37.963707
21.608887	4.484863	37.896157
25.278320	2.854004	37.816482
25.278320	11.416016	37.726279
32.209473	11.823730	37.628905
34.655762	11.416016	37.529070
35.063477	20.793457	37.430205
23.647461	22.832031	37.330226
24.055176	16.716309	37.223507
21.608887	9.377441	37.107037
24.870605	3.669434	36.981060
28.947754	0.000000	36.848280
27.724609	-3.261719	36.711824
28.540039	7.746582	36.572642
25.686035	21.608887	36.430364
27.316895	11.416016	36.284421
29.355469	11.008301	36.135776
26.501465	13.454590	35.985456
27.316895	15.493164	35.832947
25.686035	18.347168	35.677758
30.578613	24.055176	35.520816
31.801758	22.424316	35.364828
26.909180	16.716309	35.210559
28.132324	15.493164	35.056163
28.540039	2.854004	34.901275
30.578613	-9.377441	34.747150
36.286621	-7.746582	34.596592
39.548340	-4.077148	34.453990
33.024902	-8.154297	34.320632
31.801758	4.484863	34.193348
34.248047	9.785156	34.070282
31.394043	5.708008	33.951588
35.063477	0.815430	33.837298
33.432617	3.669434	33.728084
31.394043	8.562012	33.623400
23.647461	8.154297	33.519619
26.501465	11.416016	33.412951
31.394043	8.969727	33.304391
31.801758	8.562012	33.197564
25.278320	7.746582	33.092291
23.239746	5.300293	32.984755
23.647461	10.600586	32.872495
25.278320	8.562012	32.755951
29.355469	4.077148	32.637473
30.578613	0.000000	32.520165
28.947754	0.815430	32.405383
26.909180	3.669434	32.292062
24.462891	11.008301	32.178113
23.647461	9.377441	32.061649
32.617187	-2.446289	31.944192
31.394043	0.407715	31.830086
35.471191	9.377441	31.722086
38.325195	13.046875	31.622597
26.909180	8.562012	31.530911
15.493164	-4.077148	31.438523
15.493164	7.338867	31.336566
15.900879	3.669434	31.222688
26.501465	0.815430	31.100549
24.870605	3.669434	30.975899
30.578613	0.000000	30.852410
30.578613	-5.300293	30.732729
28.540039	3.669434	30.617774
23.239746	7.746582	30.504989
23.647461	5.708008	30.391179
27.316895	10.600586	30.276298
25.686035	0.815430	30.162120
27.316895	-1.223145	30.049270
24.462891	5.300293	29.937484
28.947754	14.270020	29.826939
27.316895	22.424316	29.718873
28.947754	20.385742	29.614036
28.132324	13.046875	29.512608
25.686035	3.669434	29.413897
25.686035	7.746582	29.316384
25.278320	6.931152	29.219368
28.947754	9.377441	29.123679
33.024902	4.892578	29.032247
36.286621	11.823730	28.948940
38.732910	10.600586	28.876904
35.471191	8.154297	28.816989
38.325195	2.446289	28.768387
29.355469	5.300293	28.728924
31.394043	2.854004	28.694799
32.617187	13.046875	28.664842
39.956055	27.316895	28.642002
40.771484	26.909180	28.630372
37.102051	21.201172	28.630848
39.956055	7.338867	28.641917
32.617187	2.854004	28.661695
33.024902	7.338867	28.686769
29.355469	12.231445	28.714193
29.763184	12.639160	28.742120
28.540039	7.746582	28.769425
30.578613	12.639160	28.796109
32.209473	15.085449	28.823350
38.325195	22.424316	28.854093
30.578613	25.278320	28.889752
32.209473	23.239746	28.928034
26.501465	20.793457	28.966102
24.462891	19.978027	29.000818
28.132324	24.870605	29.030693
29.763184	19.978027	29.057734
34.655762	19.978027	29.085148
36.286621	25.686035	29.116316
34.655762	24.462891	29.152750
31.801758	18.347168	29.192993
26.501465	9.377441	29.233512
26.501465	3.669434	29.270716
30.578613	-3.261719	29.304395
29.763184	9.785156	29.336602
30.986328	17.124023	29.368333
36.694336	11.416016	29.401505
37.102051	16.308594	29.439444
33.432617	33.432617	29.482644
35.878906	31.801758	29.529644
32.209473	35.878906	29.579579
39.956055	37.102051	29.633014
39.956055	36.286621	29.692839
37.509766	40.363770	29.760095
38.325195	40.363770	29.833303
34.248047	30.578613	29.910831
30.578613	22.832031	29.989511
28.540039	14.677734	30.065673
32.209473	24.055176	30.138280
32.209473	25.686035	30.208809
34.248047	24.870605	30.278780
33.024902	12.639160	30.348895
38.325195	8.969727	30.420357
39.140625	22.832031	30.495710
37.102051	29.355469	30.575981
38.325195	30.986328	30.660330
32.209473	31.394043	30.746982
38.325195	27.316895	30.834458
36.286621	21.201172	30.923698
34.248047	21.201172	31.014530
33.024902	28.947754	31.104858
31.394043	30.578613	31.193003
26.909180	28.540039	31.276616
27.316895	21.201172	31.353135
29.763184	11.823730	31.422482
38.732910	10.600586	31.488657
39.956055	18.347168	31.557409
42.402344	26.909180	31.632193
36.694336	29.763184	31.712763
31.801758	41.179199	31.795130
31.801758	43.625488	31.875057
29.355469	39.548340	31.950643
26.909180	39.140625	32.020077
29.763184	46.887207	32.082386
25.278320	48.110352	32.137507
29.355469	41.179199	32.185173
28.540039	27.316895	32.226420
20.793457	8.562012	32.260103
27.316895	6.523437	32.283960
25.278320	12.231445	32.299268
19.570313	7.746582	32.305541
22.832031	-6.931152	32.300505
27.316895	3.669434	32.286069
33.024902	6.931152	32.267387
26.501465	4.077148	32.247134
25.686035	6.931152	32.223261
18.754883	13.046875	32.191995
14.677734	19.978027	32.148776
14.677734	28.947754	32.090228
19.570313	34.655762	32.017323
21.201172	34.655762	31.933786
29.355469	44.848633	31.844470
27.316895	40.771484	31.753909
25.278320	26.909180	31.662789
27.316895	10.600586	31.570161
23.647461	-4.892578	31.475761
24.870605	-5.708008	31.378699
28.132324	-5.300293	31.279732
27.316895	6.931152	31.180871
27.316895	11.823730	31.082645
21.201172	12.231445	30.983306
26.909180	24.055176	30.881295
27.316895	29.763184	30.778342
29.355469	26.909180	30.676844
34.248047	19.978027	30.579307
36.286621	25.278320	30.489296
38.325195	26.501465	30.409454
35.878906	25.686035	30.340370
31.801758	14.270020	30.279807
28.132324	-1.223145	30.223696
28.540039	8.562012	30.169000
33.024902	18.754883	30.116142
37.102051	23.239746	30.068629
36.694336	3.261719	30.029480
34.248047	6.931152	29.998574
33.024902	12.231445	29.973854
32.209473	22.832031	29.953568
33.024902	32.617187	29.936999
30.578613	27.724609	29.923570
30.578613	21.201172	29.912079
29.355469	23.239746	29.901489
19.978027	27.724609	29.888662
20.793457	23.239746	29.868681
22.424316	33.432617	29.840283
25.278320	42.402344	29.805701
34.655762	39.956055	29.769643
35.878906	34.655762	29.738211
39.956055	24.055176	29.715405
26.501465	8.562012	29.699787
24.870605	-0.815430	29.684623
24.462891	0.407715	29.665409
26.909180	9.377441	29.642348
27.724609	18.347168	29.617032
22.832031	18.754883	29.589376
23.647461	12.639160	29.557371
24.055176	19.978027	29.520500
25.278320	24.055176	29.479772
31.394043	32.617187	29.437759
27.316895	37.509766	29.397028
31.801758	40.363770	29.358206
25.278320	24.055176	29.320820
26.501465	9.785156	29.282914
31.801758	15.493164	29.244875
34.655762	15.900879	29.210603
31.801758	13.046875	29.182107
29.355469	13.046875	29.157761
29.355469	22.424316	29.135369
29.355469	24.055176	29.114223
29.763184	5.708008	29.094396
28.947754	8.969727	29.075849
26.909180	17.531738	29.057686
23.647461	24.870605	29.037767
21.201172	29.763184	29.013302
24.055176	39.548340	28.983128
31.801758	35.471191	28.950429
25.278320	25.686035	28.918460
29.355469	28.132324	28.886898
31.801758	17.124023	28.856831
37.509766	16.308594	28.832077
33.024902	12.639160	28.814886
30.986328	6.931152	28.803540
29.355469	0.000000	28.795109
34.248047	7.746582	28.789362
35.471191	11.416016	28.788648
33.024902	11.416016	28.794023
32.209473	17.124023	28.804029
28.132324	21.608887	28.816304
31.801758	32.209473	28.829338
31.801758	47.294922	28.843941
33.024902	52.595215	28.861311
24.870605	35.063477	28.879806
24.055176	22.424316	28.895178
28.132324	19.978027	28.906053
34.248047	23.239746	28.916158
36.694336	19.978027	28.930443
30.578613	17.124023	28.949990
29.763184	10.600586	28.971755
28.132324	11.008301	28.993151
33.024902	17.124023	29.014386
32.209473	16.308594	29.037374
35.471191	9.377441	29.063724
31.801758	4.484863	29.093793
28.947754	6.523437	29.125558
31.394043	18.754883	29.157089
27.316895	23.647461	29.187829
25.686035	27.724609	29.215852
20.385742	24.055176	29.237932
24.870605	19.978027	29.252281
32.209473	13.454590	29.262126
34.248047	17.531738	29.273229
33.432617	26.909180	29.288306
35.063477	27.724609	29.307698
30.986328	22.424316	29.330759
25.686035	-0.815430	29.354193
30.986328	1.630859	29.375496
38.325195	13.046875	29.398062
39.956055	18.754883	29.427486
41.179199	27.316895	29.466532
40.771484	22.832031	29.515688
39.548340	22.424316	29.574229
34.248047	18.754883	29.639527
30.986328	10.600586	29.707244
27.724609	2.446289	29.773237
19.570313	9.785156	29.832801
15.900879	13.046875	29.880061
22.832031	4.077148	29.913275
32.209473	4.077148	29.938186
34.655762	1.630859	29.962535
33.432617	-2.446289	29.989747
33.432617	-8.969727	30.019665
25.278320	-8.969727	30.049672
27.316895	-11.823730	30.075983
28.132324	0.000000	30.097881
31.801758	14.677734	30.117472
32.209473	14.677734	30.137087
34.248047	5.300293	30.158420
32.209473	-0.407715	30.182012
32.209473	3.669434	30.207201
30.578613	6.523437	30.232925
30.986328	7.746582	30.258381
19.570313	6.931152	30.280343
19.162598	2.854004	30.292947
22.424316	5.300293	30.294249
23.647461	2.446289	30.286688
28.540039	-0.815430	30.273456
30.578613	-4.484863	30.258254
26.909180	-8.154297	30.242577
25.686035	-13.454590	30.224750
23.647461	-12.639160	30.202749
28.540039	-4.077148	30.176676
27.724609	6.523437	30.148567
30.578613	11.008301	30.120147
28.947754	17.124023	30.092320
31.801758	23.647461	30.065728
28.540039	31.394043	30.040560
24.870605	28.540039	30.014848
21.201172	28.947754	29.984895
17.124023	11.823730	29.946964
22.832031	8.562012	29.899848
30.578613	11.008301	29.847976
24.870605	13.046875	29.795687
24.055176	4.484863	29.741879
19.162598	-1.223145	29.683462
19.162598	11.416016	29.617923
25.686035	22.424316	29.546081
29.763184	26.501465	29.472796
35.471191	25.686035	29.403565
30.578613	23.239746	29.341063
28.132324	23.239746	29.283336
22.832031	14.677734	29.226265
23.647461	6.931152	29.166668
25.686035	19.570313	29.104294
18.754883	31.801758	29.038798
12.639160	24.870605	28.965678
9.785156	19.978027	28.879574
6.523437	13.454590	28.777200
13.454590	16.308594	28.658760
13.454590	8.562012	28.527890
12.231445	-1.223145	28.386791
16.716309	0.000000	28.236610
24.462891	11.416016	28.081985
25.686035	19.978027	27.928851
24.055176	26.909180	27.779550
23.239746	22.424316	27.633315
20.385742	22.424316	27.488554
19.570313	28.540039	27.343425
25.686035	24.870605	27.198526
22.832031	27.316895	27.056247
25.278320	27.724609	26.917369
24.462891	15.493164	26.782205
29.355469	13.046875	26.652228
30.986328	17.124023	26.530125
35.063477	15.900879	26.418879
33.432617	13.046875	26.320259
39.140625	18.347168	26.235508
39.548340	11.008301	26.166766
33.432617	5.708008	26.113485
27.316895	18.754883	26.070310
25.278320	31.801758	26.031472
31.394043	36.694336	25.995744
32.617187	36.286621	25.966023
35.063477	24.462891	25.944958
38.732910	17.124023	25.934751
35.471191	25.278320	25.936633
28.540039	25.686035	25.947484
32.209473	17.124023	25.963352
35.063477	15.493164	25.984850
35.471191	19.162598	26.014271
41.179199	19.978027	26.053688
41.586914	14.677734	26.105820
45.664062	6.523437	26.172820
47.294922	8.562012	26.256622
42.402344	18.347168	26.357019
37.102051	29.355469	26.469619
38.732910	27.316895	26.590109
37.509766	30.986328	26.717150
36.286621	28.540039	26.849773
35.878906	30.578613	26.986518
31.394043	30.986328	27.125338
35.471191	22.424316	27.264602
33.024902	13.454590	27.404466
40.363770	15.900879	27.546467
44.033203	18.754883	27.694538
38.732910	17.124023	27.850711
35.471191	19.978027	28.011778
32.209473	11.823730	28.173383
31.801758	14.270020	28.332657
40.771484	11.823730	28.490821
42.402344	17.124023	28.652795
45.664062	12.639160	28.822305
45.256348	11.416016	29.000866
38.325195	14.270020	29.186703
34.655762	24.870605	29.374578
25.278320	27.724609	29.557990
26.501465	23.239746	29.731378
28.540039	18.754883	29.893729
27.724609	22.832031	30.046552
30.578613	24.870605	30.190974
34.248047	15.493164	30.329473
24.870605	16.308594	30.462387
28.132324	18.347168	30.586722
21.201172	16.716309	30.700167
25.278320	18.347168	30.801381
26.501465	15.900879	30.891456
29.355469	15.900879	30.973265
27.316895	21.201172	31.048382
26.501465	24.870605	31.116496
20.793457	34.248047	31.175388
25.686035	38.732910	31.223488
21.201172	43.625488	31.261126
24.462891	32.617187	31.288523
19.978027	24.055176	31.305472
15.900879	20.385742	31.309857
18.754883	19.978027	31.299673
17.531738	19.978027	31.275699
16.308594	14.270020	31.238369
13.454590	4.077148	31.186615
15.493164	8.562012	31.119859
17.124023	26.909180	31.039601
20.385742	30.986328	30.948787
19.570313	25.278320	30.849918
17.124023	21.201172	30.743248
9.785156	24.055176	30.625816
7.746582	31.801758	30.493199
7.746582	31.801758	30.343227
15.493164	30.986328	30.178341
18.347168	28.947754	30.004211
14.677734	25.686035	29.824010
16.308594	31.394043	29.637451
19.570313	31.801758	29.445770
23.647461	30.986328	29.252611
13.454590	18.347168	29.058567
20.385742	17.124023	28.861419
17.531738	21.608887	28.661727
14.677734	38.732910	28.459390
15.493164	36.694336	28.252704
13.454590	25.686035	28.041226
16.308594	15.085449	27.825290
14.677734	15.493164	27.605860
18.754883	8.969727	27.384288
18.347168	16.716309	27.162510
15.900879	24.870605	26.940984
15.493164	28.540039	26.718432
15.085449	43.217773	26.494169
18.754883	47.702637	26.269151
15.085449	32.617187	26.044506
14.677734	21.201172	25.819383
16.308594	16.716309	25.593289
18.754883	15.085449	25.367898
19.162598	9.785156	25.145237
21.201172	21.201172	24.926807
19.162598	28.132324	24.713290
17.124023	26.909180	24.503615
11.008301	24.870605	24.294617
11.823730	19.978027	24.082949
21.201172	16.308594	23.870240
28.132324	22.832031	23.663723
25.278320	24.055176	23.468688
24.055176	16.308594	23.284822
19.162598	10.600586	23.109132
18.754883	14.677734	22.938435
24.462891	13.046875	22.772684
23.647461	13.454590	22.614506
26.501465	20.385742	22.465545
24.462891	14.677734	22.326289
28.132324	12.231445	22.197088
29.355469	14.677734	22.079335
30.578613	31.801758	21.974564
34.248047	34.655762	21.884224
28.947754	33.432617	21.808612
27.316895	28.947754	21.744892
31.394043	27.724609	21.691414
34.248047	23.239746	21.650232
31.394043	29.763184	21.622655
30.578613	37.102051	21.607130
30.578613	31.801758	21.601949
20.385742	24.870605	21.603758
16.308594	10.600586	21.605812
18.347168	4.892578	21.603813
26.501465	0.000000	21.600090
22.832031	2.446289	21.598579
26.501465	-0.407715	21.600360
30.578613	2.854004	21.607318
32.209473	2.854004	21.622745
35.471191	14.270020	21.649025
36.694336	33.432617	21.688102
35.063477	32.617187	21.740427
31.394043	19.162598	21.803844
21.608887	21.201172	21.872858
29.355469	30.578613	21.943073
26.501465	28.947754	22.015110
26.909180	28.540039	22.089454
16.308594	21.201172	22.162601
12.231445	12.231445	22.227996
21.201172	9.377441	22.283352
24.870605	7.746582	22.333669
22.832031	8.154297	22.382873
27.724609	12.231445	22.432140
26.909180	16.716309	22.483236
19.978027	15.493164	22.535061
21.608887	22.424316	22.584100
18.347168	31.801758	22.628606
21.608887	25.686035	22.668311
23.239746	18.347168	22.704675
28.540039	15.493164	22.740917
31.801758	13.046875	22.781075
27.316895	12.231445	22.826857
19.978027	21.201172	22.874533
11.008301	20.793457	22.916576
12.639160	18.347168	22.946986
12.231445	16.716309	22.964652
12.639160	19.162598	22.970453
11.416016	16.716309	22.964708
15.493164	19.978027	22.948480
14.677734	26.501465	22.923869
16.308594	19.162598	22.892350
20.385742	18.754883	22.855985
15.085449	22.832031	22.816209
16.308594	26.501465	22.771826
16.716309	26.501465	22.722448
9.785156	31.394043	22.667069
14.677734	41.179199	22.603770
9.785156	40.771484	22.532440
15.493164	33.432617	22.453733
18.347168	18.347168	22.370528
24.462891	5.708008	22.287724
18.754883	5.708008	22.207851
22.424316	2.854004	22.130433
19.978027	0.407715	22.055225
18.754883	-2.854004	21.981563
11.008301	13.046875	21.906136
10.600586	26.909180	21.824603
7.746582	39.956055	21.734329
11.416016	39.140625	21.635161
16.308594	46.479492	21.530070
22.424316	45.664062	21.424577
23.647461	43.217773	21.323628
16.308594	39.548340	21.227447
12.639160	33.432617	21.131420
8.969727	31.801758	21.030821
16.308594	39.140625	20.924998
18.754883	40.363770	20.817835
23.647461	39.140625	20.714003
17.531738	28.947754	20.615067
20.385742	24.055176	20.519730
22.832031	17.124023	20.428465
31.394043	16.716309	20.345468
31.394043	3.669434	20.275592
24.870605	6.931152	20.218852
14.270020	18.754883	20.168499
9.377441	34.655762	20.115730
14.270020	36.694336	20.056639
13.046875	34.655762	19.992539
10.600586	33.432617	19.923724
11.008301	36.694336	19.848980
10.600586	39.956055	19.768120
15.493164	30.986328	19.682684
17.531738	28.132324	19.595967
24.462891	39.548340	19.512296
23.647461	42.402344	19.435583
20.793457	33.024902	19.366237
23.239746	30.578613	19.302925
20.793457	26.501465	19.245333
16.716309	17.124023	19.191549
23.647461	21.201172	19.140493
33.024902	22.424316	19.097129
32.617187	30.578613	19.067794
30.578613	25.686035	19.053598
17.124023	36.694336	19.049155
20.385742	41.179199	19.047282
15.493164	34.655762	19.044759
17.531738	33.432617	19.040439
11.823730	29.763184	19.032694
11.823730	24.870605	19.019225
11.823730	19.978027	18.998805
12.231445	17.124023	18.971879
11.823730	11.823730	18.938876
17.124023	6.931152	18.901391
18.754883	6.931152	18.862774
24.870605	4.077148	18.826971
19.162598	14.270020	18.796035
21.201172	31.394043	18.768921
16.716309	27.724609	18.743878
8.562012	24.055176	18.716875
9.377441	23.647461	18.682782
15.493164	36.286621	18.641848
14.677734	35.063477	18.597640
13.454590	36.694336	18.551210
9.377441	30.578613	18.500778
11.823730	21.201172	18.444759
16.308594	19.162598	18.384856
17.531738	16.308594	18.324630
12.639160	11.823730	18.264693
3.669434	11.416016	18.200490
0.407715	15.900879	18.125427
2.854004	14.677734	18.036648
7.746582	25.278320	17.936581
11.008301	24.055176	17.829913
7.746582	18.754883	17.719197
6.931152	15.493164	17.603662
6.931152	17.124023	17.482362
6.931152	22.424316	17.355472
8.154297	27.724609	17.223700
0.815430	29.763184	17.086120
-4.077148	25.278320	16.938321
-0.815430	14.677734	16.777279
4.077148	4.484863	16.605477
4.892578	0.407715	16.427225
7.338867	0.000000	16.245358
7.746582	11.416016	16.061839
8.154297	23.239746	15.877898
6.523437	13.046875	15.693641
1.223145	8.562012	15.507134
3.669434	8.562012	15.316104
-2.446289	26.909180	15.119244
-5.300293	28.947754	14.913704
-14.270020	32.209473	14.694631
-13.454590	40.363770	14.457621
-11.823730	36.286621	14.202237
-14.677734	31.801758	13.929899
-12.231445	23.647461	13.641235
-8.969727	18.347168	13.338680
-2.446289	24.055176	13.027251
-11.008301	26.501465	12.709713
-13.046875	15.493164	12.383355
-12.639160	19.162598	12.045707
-2.446289	33.024902	11.699993
0.815430	39.548340	11.353258
1.223145	38.325195	11.010414
1.223145	27.316895	10.672714
-5.300293	25.686035	10.338673
-3.261719	27.724609	10.005586
-12.231445	22.832031	9.670759
-11.416016	20.385742	9.330662
-11.008301	22.832031	8.984069
-16.716309	18.347168	8.630568
-18.754883	24.870605	8.267415
-17.531738	25.686035	7.893182
-12.639160	33.024902	7.510155
-9.785156	28.947754	7.122777
-8.154297	23.239746	6.734866
-4.892578	15.493164	6.349315
-1.223145	22.424316	5.969531
5.300293	15.493164	5.600147
12.231445	11.008301	5.247294
7.746582	18.754883	4.914769
2.446289	33.432617	4.600074
5.300293	40.363770	4.299518
9.377441	35.878906	4.013954
7.746582	32.617187	3.745467
-2.446289	17.124023	3.491100
-7.746582	22.424316	3.243307
-6.523437	24.870605	2.996908
-8.154297	14.677734	2.750921
-9.377441	13.046875	2.504728
-9.785156	11.008301	2.257421
-8.969727	9.377441	2.008988
-6.523437	10.600586	1.760705
-3.261719	18.347168	1.515182
1.630859	23.647461	1.276193
-4.077148	23.647461	1.045622
-4.077148	16.308594	0.821616
-5.300293	24.055176	0.602292
-1.223145	22.424316	0.388096
-0.407715	33.432617	0.181057
1.630859	32.209473	-0.016899
0.815430	23.647461	-0.204902
0.815430	28.540039	-0.383100
2.854004	28.947754	-0.551428
0.815430	32.209473	-0.709621
0.000000	20.793457	-0.858723
0.407715	17.124023	-0.999844
0.407715	13.046875	-1.133199
1.630859	13.454590	-1.258570
4.892578	23.239746	-1.374689
0.000000	13.046875	-1.481103
6.931152	8.969727	-1.578032
5.708008	11.416016	-1.663770
6.931152	19.162598	-1.737235
5.300293	21.201172	-1.799012
4.077148	34.655762	-1.850423
11.008301	37.509766	-1.891133
5.708008	27.724609	-1.919658
1.630859	31.801758	-1.938555
-4.892578	40.363770	-1.953487
-4.484863	41.179199	-1.969010
-2.446289	40.771484	-1.986044
5.300293	33.024902	-2.001291
1.630859	37.102051	-2.011174
-1.223145	24.870605	-2.016568
1.630859	18.347168	-2.019384
8.562012	18.347168	-2.017166
11.823730	27.316895	-2.004897
4.077148	30.986328	-1.981545
-3.669434	16.308594	-1.952884
-2.446289	17.124023	-1.924970
0.000000	25.686035	-1.898547
6.523437	24.870605	-1.870256
5.708008	19.162598	-1.836355
2.446289	31.394043	-1.796705
-4.077148	34.248047	-1.755250
-4.892578	33.024902	-1.716615
0.407715	32.209473	-1.681460
1.630859	34.248047	-1.646775
-2.446289	37.509766	-1.611609
-0.815430	34.248047	-1.577415
8.969727	33.432617	-1.541827
4.077148	23.647461	-1.500662
0.407715	28.947754	-1.455181
-3.261719	30.986328	-1.409803
-1.630859	23.647461	-1.367035
-1.223145	20.793457	-1.326804
0.815430	30.986328	-1.287858
1.630859	38.325195	-1.248788
0.407715	29.355469	-1.208998
3.261719	33.432617	-1.168242
3.669434	32.617187	-1.125320
10.600586	26.909180	-1.077592
11.823730	22.424316	-1.021254
13.046875	19.162598	-0.953973
11.008301	4.077148	-0.875886
6.523437	-9.377441	-0.789493
4.484863	-5.300293	-0.698687
3.669434	2.854004	-0.606229
8.969727	13.046875	-0.511861
11.823730	33.432617	-0.412448
12.639160	39.956055	-0.305219
16.308594	48.110352	-0.188498
11.823730	43.625488	-0.061874
13.454590	38.732910	0.073108
12.231445	25.278320	0.215285
11.823730	24.462891	0.363859
13.046875	16.308594	0.518170
13.454590	11.416016	0.678440
15.493164	11.008301	0.845300
14.270020	5.708008	1.019133
17.531738	1.630859	1.200191
13.454590	2.854004	1.388277
8.562012	12.231445	1.580305
8.562012	11.008301	1.772252
9.377441	14.270020	1.962850
10.600586	21.201172	2.152710
10.600586	24.462891	2.342521
12.231445	35.471191	2.532837
12.639160	39.140625	2.724399
18.754883	42.402344	2.919198
19.162598	36.694336	3.120309
15.900879	28.132324	3.328200
10.600586	31.801758	3.539346
14.677734	23.239746	3.750807
9.377441	35.471191	3.961704
9.377441	30.986328	4.170128
4.484863	12.639160	4.373293
8.562012	-4.892578	4.569726
12.231445	4.484863	4.761345
16.716309	16.716309	4.952345
15.085449	27.724609	5.145444
14.677734	23.239746	5.340560
11.823730	30.986328	5.536002
10.600586	34.655762	5.729623
7.338867	36.286621	5.919053
4.892578	41.179199	6.101606
3.261719	36.694336	6.274830
6.931152	35.878906	6.438431
7.746582	25.686035	6.594386
4.077148	13.454590	6.743307
4.077148	12.231445	6.883643
4.077148	0.000000	7.014670
5.708008	-2.446289	7.137102
1.630859	1.630859	7.250985
4.484863	15.493164	7.355623
6.523437	19.162598	7.452288
6.931152	19.570313	7.543169
11.416016	19.162598	7.630360
3.669434	16.308594	7.714364
0.000000	17.124023	7.791383
-4.892578	18.754883	7.856404
0.815430	19.162598	7.907867
2.854004	18.754883	7.948581
3.261719	19.978027	7.981669
8.562012	13.046875	8.009584
10.600586	12.231445	8.035957
11.008301	19.162598	8.063401
7.746582	16.308594	8.091733
3.669434	7.746582	8.118203
3.261719	1.630859	8.139764
7.338867	8.969727	8.156400
10.600586	2.446289	8.171209
11.008301	1.630859	8.187150
8.562012	11.008301	8.204583
7.746582	32.617187	8.222030
10.600586	39.956055	8.239151
2.854004	31.801758	8.255193
7.338867	24.870605	8.268045
-3.261719	12.639160	8.275377
1.630859	13.046875	8.274323
7.338867	19.978027	8.266550
4.484863	13.046875	8.255906
7.746582	15.085449	8.243388
8.154297	13.046875	8.230166
6.931152	11.416016	8.217034
9.377441	8.154297	8.204111
12.639160	12.639160	8.193220
8.562012	13.046875	8.185566
8.969727	10.600586	8.179833
10.600586	16.308594	8.175511
10.600586	22.424316	8.173505
10.600586	18.347168	8.174139
11.008301	18.754883	8.177402
11.416016	20.385742	8.183492
17.531738	19.570313	8.194201
17.124023	20.793457	8.212523
11.823730	15.900879	8.238094
11.008301	19.162598	8.267451
2.854004	14.270020	8.296430
3.669434	17.531738	8.320734
7.746582	13.046875	8.339906
10.600586	12.231445	8.357264
12.231445	19.162598	8.375872
8.969727	6.931152	8.396402
9.785156	7.746582	8.417676
7.746582	16.308594	8.438673
1.223145	24.055176	8.456813
1.630859	26.501465	8.468351
2.446289	32.617187	8.472288
-1.223145	31.801758	8.468538
-0.815430	31.394043	8.455844
3.261719	30.986328	8.434948
2.446289	21.201172	8.408278
4.484863	17.124023	8.377302
3.261719	11.416016	8.342782
7.338867	11.008301	8.305880
12.639160	11.823730	8.269955
16.308594	5.300293	8.239821
16.716309	6.931152	8.218674
19.162598	0.407715	8.207949
21.201172	8.969727	8.209114
21.608887	22.424316	8.223450
18.754883	29.763184	8.250343
23.239746	31.394043	8.288984
20.385742	33.432617	8.339655
11.823730	37.509766	8.399188
7.746582	30.986328	8.460800
6.931152	32.209473	8.519726
6.523437	23.239746	8.574421
5.708008	21.201172	8.624374
14.677734	13.046875	8.671570
11.823730	10.600586	8.719833
11.416016	9.785156	8.769812
8.154297	10.600586	8.819558
9.377441	17.531738	8.867529
16.716309	13.046875	8.915468
12.639160	11.416016	8.966432
15.493164	17.531738	9.020768
18.754883	22.424316	9.079549
17.531738	24.055176	9.144654
17.531738	23.647461	9.215944
11.416016	25.278320	9.291134
4.892578	27.724609	9.365043
3.669434	28.132324	9.432296
3.669434	36.694336	9.490767
11.823730	36.694336	9.542614
9.377441	31.801758	9.591724
12.231445	29.763184	9.639776
16.716309	20.385742	9.688801
16.716309	28.540039	9.741812
19.570313	39.140625	9.800498
15.493164	24.055176	9.864970
11.008301	15.493164	9.932328
12.231445	14.270020	9.999263
11.008301	8.969727	10.064868
11.008301	10.600586	10.128812
15.493164	15.900879	10.191962
16.308594	25.686035	10.256856
12.639160	20.793457	10.323990
4.892578	24.870605	10.389444
-4.892578	18.347168	10.445620
0.000000	19.162598	10.486990
5.708008	30.578613	10.515681
7.338867	16.308594	10.536948
7.746582	7.338867	10.553570
14.270020	7.746582	10.568096
13.454590	14.270020	10.583926
12.639160	8.562012	10.602055
15.493164	8.969727	10.622467
17.531738	12.639160	10.646857
19.570313	18.347168	10.677377
18.347168	20.385742	10.715001
12.639160	27.724609	10.757761
15.493164	25.686035	10.802810
18.754883	19.978027	10.850854
15.493164	14.270020	10.903311
12.231445	2.446289	10.958215
1.630859	6.523437	11.010040
0.000000	21.201172	11.052018
6.931152	26.909180	11.082731
13.454590	21.201172	11.107582
13.046875	13.046875	11.131952
14.270020	17.124023	11.157659
18.347168	20.385742	11.186220
19.162598	31.801758	11.220156
18.754883	27.724609	11.260577
16.308594	17.124023	11.306506
8.562012	8.562012	11.354218
12.231445	8.969727	11.399832
16.716309	16.308594	11.444468
15.900879	19.570313	11.491228
20.385742	29.763184	11.541895
22.424316	25.686035	11.598916
21.201172	16.308594	11.663871
23.647461	12.231445	11.736868
27.316895	0.815430	11.819394
23.647461	-1.223145	11.912537
20.793457	7.746582	12.014003
25.686035	19.162598	12.122132
22.424316	11.416016	12.237471
24.462891	12.231445	12.359680
24.462891	13.046875	12.488533
20.793457	10.600586	12.623166
15.493164	14.270020	12.759854
16.308594	30.578613	12.894827
27.724609	44.848633	13.030056
39.140625	36.694336	13.174597
41.586914	44.033203	13.337516
35.471191	39.548340	13.520487
29.355469	27.316895	13.718231
22.832031	19.570313	13.923339
23.647461	7.338867	14.130441
24.055176	3.669434	14.338051
22.424316	0.407715	14.545929
29.763184	11.008301	14.755021
26.501465	11.008301	14.967624
28.540039	13.454590	15.184105
28.540039	14.677734	15.404274
30.578613	14.270020	15.628805
34.248047	20.793457	15.859298
38.325195	24.055176	16.098776
40.363770	25.278320	16.350221
37.509766	26.501465	16.614219
44.033203	22.424316	16.890674
44.033203	15.493164	17.181408
47.294922	15.085449	17.488039
47.294922	26.501465	17.811239
53.002930	27.724609	18.152273
56.672363	15.900879	18.513937
56.264648	0.000000	18.898236
59.118652	18.347168	19.305242
59.118652	23.239746	19.734889
58.303223	16.716309	20.186235
60.749512	13.046875	20.658037
61.564941	17.124023	21.150158
68.903809	31.394043	21.664159
71.757812	32.617187	22.203328
76.242676	44.033203	22.770563
70.942383	31.394043	23.365710
65.642090	14.677734	23.983879
61.564941	13.046875	24.618131
59.934082	14.677734	25.263107
64.826660	19.162598	25.917002
64.826660	22.424316	26.580865
67.680664	24.870605	27.255582
71.757812	21.201172	27.942524
69.719238	18.754883	28.642770
61.157227	17.124023	29.352733
55.856934	22.832031	30.064800
57.487793	9.785156	30.773522
63.195801	7.338867	31.479271
63.195801	4.484863	32.184867
61.157227	1.223145	32.890539
63.195801	1.630859	33.595006
58.303223	-2.446289	34.296834
60.749512	0.407715	34.994011
59.526367	-0.407715	35.685696
63.603516	3.669434	36.372481
64.826660	12.231445	37.056009
69.719238	32.617187	37.738707
70.534668	44.848633	38.423002
60.749512	47.702637	39.107246
59.118652	51.372070	39.785367
54.633789	46.887207	40.452325
46.887207	53.002930	41.103104
41.586914	55.041504	41.731115
35.471191	62.788086	42.330302
35.878906	62.380371	42.896844
37.102051	76.650391	43.430555
39.140625	82.358398	43.933645
33.024902	81.135254	44.406760
27.316895	83.581543	44.846584
29.355469	86.843262	45.250093
24.055176	85.620117	45.616689
25.278320	90.512695	45.945730
24.462891	92.551270	46.237610
33.432617	90.920410	46.495954
34.248047	91.735840	46.726723
35.471191	111.306152	46.934030
35.878906	116.606445	47.119684
38.325195	127.614746	47.285650
40.363770	135.769043	47.434573
35.063477	134.953613	47.567391
28.947754	149.223633	47.680837
21.201172	170.424805	47.769030
17.531738	179.802246	47.826381
17.531738	170.424805	47.850266
24.870605	172.871094	47.843138
18.754883	176.948242	47.808661
19.162598	195.703125	47.746932
22.424316	204.672852	47.658714
18.754883	215.681152	47.546158
22.424316	216.496582	47.410377
20.793457	217.719727	47.253103
26.909180	224.650879	47.077188
34.655762	227.912598	46.888480
35.471191	233.620605	46.693650
40.363770	245.852051	46.496927
41.179199	260.937500	46.301603
48.925781	277.246094	46.111568
45.664062	290.700684	45.930210
41.179199	298.039551	45.756469
31.801758	280.915527	45.584506
31.394043	281.323242	45.408209
33.024902	289.069824	45.225711
34.248047	311.494141	45.038555
39.140625	320.463867	44.849506
45.256348	323.725586	44.663346
46.479492	325.764160	44.484960
37.102051	319.648437	44.313968
35.063477	329.841309	44.145074
33.024902	348.596191	43.974291
23.647461	364.089355	43.797814
19.162598	363.273926	43.609446
8.562012	346.965332	43.402319
16.716309	344.926758	43.172896
16.308594	366.943359	42.923821
15.493164	379.174805	42.657959
11.823730	382.028809	42.374851
11.008301	393.852539	42.073220
11.008301	407.307129	41.752830
15.085449	408.937988	41.415723
11.823730	396.298828	41.064298
13.454590	408.122559	40.699358
13.046875	409.345703	40.321792
11.008301	415.869141	39.932247
12.231445	431.362305	39.530818
1.630859	435.847168	39.115789
0.407715	446.040039	38.682643
4.077148	452.971191	38.230192
4.892578	468.464355	37.761606
2.446289	485.588379	37.278861
-1.630859	496.596680	36.780961
-8.154297	498.227539	36.264619
-19.162598	495.781250	35.723823
-23.647461	501.489258	35.151574
-26.501465	510.866699	34.543901
-26.909180	510.051270	33.900263
-32.617187	510.051270	33.220503
-36.694336	509.643555	32.502794
-46.479492	511.274414	31.743399
-52.187500	519.836426	30.937293
-51.779785	532.883301	30.081978
-52.187500	534.921875	29.179189
-63.603516	543.076172	28.228922
-71.350098	538.999023	27.226185
-69.311523	545.114746	26.167877
-59.934082	553.269043	25.059127
-60.341797	578.955078	23.908742
-60.341797	585.886230	22.722066
-74.611816	574.062500	21.498134
-80.727539	568.354492	20.230818
-83.989258	571.208496	18.915595
-80.727539	574.470215	17.553557
-85.620117	579.770508	16.147826
-86.435547	578.955078	14.699933
-90.512695	585.478516	13.210523
-99.482422	588.740234	11.678332
-107.636719	593.225098	10.098982
-108.859863	589.555664	8.469308
-109.675293	597.302246	6.790303
-109.267578	591.594238	5.065326
-103.967285	605.048828	3.299663
-110.898438	611.164551	1.498085
-119.052734	625.026855	-0.340280
-119.052734	633.181152	-2.217936
-117.829590	631.550293	-4.132952
-124.353027	639.296875	-6.082693
-135.769043	632.773437	-8.069642
-145.554199	622.580566	-10.100307
-145.554199	616.872559	-12.178714
-142.700195	617.687988	-14.302334
-137.807617	618.095703	-16.464105
-137.399902	610.349121	-18.656597
-141.477051	614.426270	-20.875688
-148.815918	620.541992	-23.121802
-146.777344	622.172852	-25.395746
-141.477051	625.434570	-27.693335
-141.069336	619.726562	-30.007655
-149.223633	637.666016	-32.336052
-152.077637	641.743164	-34.680368
-152.485352	641.743164	-37.041167
-152.485352	638.073730	-39.416186
-154.931641	638.481445	-41.803034
-160.639648	642.150879	-44.201452
-158.601074	645.820312	-46.611501
-163.085937	653.566895	-49.031729
-166.755371	648.674316	-51.461916
-172.463379	639.296875	-53.903662
-168.793945	633.181152	-56.356877
-168.386230	636.442871	-58.817928
-173.686523	642.150879	-61.284088
-176.948242	647.043457	-63.756069
-178.579102	655.197754	-66.234544
-183.879395	654.382324	-68.719720
-185.917969	657.236328	-71.212430
-183.471680	660.498047	-73.711536
-183.063965	665.798340	-76.213264
-185.917969	655.605469	-78.714760
-185.102539	654.382324	-81.214583
-192.033691	649.897461	-83.712326
-189.995117	652.751465	-86.208349
-191.625977	653.566895	-88.701287
-186.733398	644.189453	-91.187694
-194.479980	645.412598	-93.665148
-189.179687	645.412598	-96.132844
-192.033691	638.481445	-98.588630
-189.587402	640.927734	-101.029930
-185.102539	640.520020	-103.453123
-189.179687	647.451172	-105.854554
-201.818848	638.073730	-108.236970
-211.196289	636.850586	-110.608904
-211.196289	650.305176	-112.976587
-207.526855	656.013184	-115.339221
-208.342285	636.035156	-117.692840
-208.342285	637.666016	-120.034844
-207.934570	628.696289	-122.363405
-215.681152	625.842285	-124.678506
-220.573730	622.172852	-126.983573
-215.273437	625.842285	-129.279851
-214.865723	632.365723	-131.563719
-216.496582	630.327148	-133.832162
-215.273437	634.404297	-136.083923
-208.750000	623.395996	-138.315464
-197.333984	624.619141	-140.518610
-198.964844	627.880859	-142.685050
-203.857422	636.035156	-144.813313
-201.818848	617.687988	-146.905356
-207.526855	629.919434	-148.962336
-205.895996	640.520020	-150.985716
-207.934570	632.365723	-152.976069
-211.604004	631.550293	-154.934409
-214.865723	625.026855	-156.863447
-209.973145	611.572266	-158.763877
-209.565430	601.787109	-160.633178
-204.265137	593.632812	-162.467904
-208.750000	603.417969	-164.265981
-213.642578	611.572266	-166.029429
-203.041992	608.718262	-167.758929
-204.265137	602.194824	-169.450238
-199.780273	600.156250	-171.099989
-196.926270	604.641113	-172.705549
-194.887695	599.748535	-174.264018
-199.780273	589.963379	-175.775359
-201.818848	594.448242	-177.242688
-199.372559	597.302246	-178.668173
-201.003418	592.817383	-180.051890
-199.780273	598.525391	-181.394170
-194.887695	592.409668	-182.693982
-189.995117	588.332520	-183.947707
-187.141113	584.663086	-185.151511
-189.995117	576.508789	-186.304356
-192.033691	577.731934	-187.408625
-187.141113	569.985352	-188.465894
-185.510254	568.762207	-189.474719
-187.548828	565.500488	-190.434629
-189.995117	569.577637	-191.348117
-184.694824	572.431641	-192.216754
-185.102539	577.324219	-193.039626
-181.840820	578.955078	-193.815906
-178.579102	572.023926	-194.544428
-181.025391	562.238770	-195.224661
-187.141113	557.346191	-195.860114
-179.802246	563.869629	-196.454076
-184.287109	565.092773	-197.006733
-190.810547	559.384766	-197.521517
-191.625977	550.415039	-198.004423
-187.141113	548.784180	-198.457353
-183.879395	532.475586	-198.878189
-189.179687	532.475586	-199.266445
-189.995117	541.037598	-199.625330
-185.102539	535.329590	-199.956335
-178.986816	532.475586	-200.256411
-183.063965	535.737305	-200.523219
-183.471680	554.492187	-200.758627
-185.917969	552.045898	-200.965738
-187.956543	550.415039	-201.147547
-196.926270	543.076172	-201.309077
-192.849121	532.475586	-201.455255
-189.587402	524.729004	-201.585980
-180.209961	523.098145	-201.696568
-180.209961	520.651855	-201.782031
-173.278809	506.381836	-201.839133
-174.909668	496.596680	-201.865888
-174.501953	490.073242	-201.862570
-174.909668	496.188965	-201.830867
-173.278809	497.412109	-201.771778
-172.463379	492.927246	-201.685641
-171.647949	496.596680	-201.572703
-170.017090	500.673828	-201.433224
-171.647949	504.750977	-201.267912
-168.386230	489.665527	-201.077682
-161.047363	499.042969	-200.860650
-161.455078	501.896973	-200.613654
-161.455078	497.004395	-200.336598
-165.124512	485.996094	-200.032204
-171.240234	479.880371	-199.705568
-168.386230	483.957520	-199.361466
-167.570801	490.888672	-199.000945
-167.163086	488.850098	-198.623842
-167.978516	473.356934	-198.231091
-160.639648	469.279785	-197.822207
-150.446777	463.164063	-197.392031
-156.970215	456.640625	-196.936412
-160.231934	463.571777	-196.458587
-174.501953	453.786621	-195.967241
-172.463379	444.816895	-195.471321
-172.055664	446.855469	-194.974125
-167.978516	445.224609	-194.474414
-166.755371	451.340332	-193.970256
-167.570801	452.971191	-193.460882
-164.309082	450.932617	-192.946315
-157.785645	435.847168	-192.424117
-152.485352	426.877441	-191.889507
-156.562500	427.285156	-191.340182
-159.416504	429.323730	-190.778884
-163.901367	408.530273	-190.210495
-161.047363	413.422852	-189.638290
-157.377930	424.838867	-189.061757
-153.300781	410.976562	-188.477951
-151.669922	411.791992	-187.884279
-147.592773	424.431152	-187.278813
-148.815918	434.216309	-186.660476
-143.107910	428.100586	-186.028571
-142.700195	433.808594	-185.381594
-139.846191	438.293457	-184.718444
-139.030762	436.662598	-184.038729
-145.554199	438.293457	-183.344451
-155.339355	429.323730	-182.642781
-162.678223	428.508301	-181.943575
-156.970215	426.062012	-181.252382
-151.669922	408.122559	-180.567103
-146.777344	391.406250	-179.882619
-143.107910	381.213379	-179.194688
-136.584473	385.290527	-178.499261
-131.691895	392.221680	-177.791733
-124.353027	385.290527	-177.067184
-129.653320	377.543945	-176.323397
-131.284180	368.574219	-175.563312
-125.576172	368.166504	-174.789214
-129.653320	380.397949	-174.001054
-123.945312	395.891113	-173.199439
-125.168457	379.990234	-172.384215
-120.275879	363.273926	-171.554714
-123.945312	355.119629	-170.711168
-127.207031	357.158203	-169.856600
-123.129883	359.196777	-168.994013
-117.014160	352.673340	-168.121786
-113.752441	348.188477	-167.236132
-109.267578	356.342773	-166.334090
-108.859863	355.527344	-165.414031
-99.482422	353.896484	-164.473883
-83.989258	349.411621	-163.506440
-77.465820	346.149902	-162.501639
-75.019531	339.218750	-161.454089
-83.989258	339.626465	-160.366184
-84.804687	347.780762	-159.245182
-84.804687	349.411621	-158.096543
-81.542969	345.334473	-156.922085
-82.766113	339.218750	-155.722820
-85.212402	325.764160	-154.501559
-83.989258	306.601562	-153.261869
-81.542969	290.700684	-152.005244
-72.980957	271.945801	-150.729917
-64.826660	265.014648	-149.430791
-52.595215	267.460937	-148.100565
-44.440918	271.130371	-146.731335
-52.187500	248.706055	-145.320845
-54.633789	240.144043	-143.875017
-51.779785	239.736328	-142.399542
-50.964355	227.504883	-140.896243
-56.672363	211.604004	-139.368282
-50.964355	201.411133	-137.819666
-44.033203	195.703125	-136.249640
-40.771484	189.587402	-134.654824
-39.548340	189.587402	-133.034163
-35.063477	172.871094	-131.387853
-29.355469	159.008789	-129.714609
-21.608887	144.738770	-128.011197
-16.716309	126.799316	-126.273921
-13.046875	115.383301	-124.500571
-9.785156	113.752441	-122.690575
-7.338867	99.482422	-120.844175
-1.630859	77.465820	-118.961319
0.815430	87.250977	-117.041354
13.046875	94.997559	-115.081982
18.754883	92.551270	-113.078477
22.424316	68.496094	-111.027771
25.686035	44.440918	-108.929871
27.316895	27.316895	-106.786016
31.394043	7.338867	-104.597755
33.432617	10.600586	-102.366294
38.325195	3.261719	-100.092508
45.664062	-18.754883	-97.775671
50.964355	-33.024902	-95.413634
62.788086	-49.333496	-93.003109
68.903809	-65.234375	-90.539616
74.611816	-75.427246	-88.020324
81.542969	-73.388672	-85.443983
85.212402	-72.573242	-82.809781
90.920410	-76.650391	-80.117859
96.220703	-82.766113	-77.368306
107.229004	-94.997559	-74.559448
108.452148	-112.529297	-71.689425
116.198730	-121.906738	-68.758456
119.868164	-127.614746	-65.767026
127.614746	-143.107910	-62.715022
133.322754	-143.107910	-59.601862
137.399902	-169.609375	-56.427483
143.515625	-192.033691	-53.192747
156.970215	-195.295410	-49.895969
161.047363	-201.411133	-46.533679
167.163086	-213.234863	-43.105095
176.948242	-212.827148	-39.609969
180.617676	-221.389160	-36.047278
184.694824	-249.113770	-32.418257
195.703125	-262.976074	-28.723728
200.595703	-264.606934	-24.962402
200.595703	-275.207520	-21.135795
195.703125	-280.100098	-17.250886
197.333984	-280.100098	-13.316541
204.265137	-298.854980	-9.337742
199.780273	-329.433594	-5.317793
198.557129	-331.879883	-1.263639
205.895996	-336.364746	2.819018
213.234863	-342.888184	6.930058
221.389160	-351.042480	11.071801
226.689453	-368.981934	15.246107
230.766602	-387.736816	19.453114
225.874023	-386.105957	23.689167
227.912598	-390.183105	27.947535
225.058594	-410.976562	32.221770
223.835449	-411.384277	36.505375
227.097168	-418.315430	40.792889
228.320312	-415.461426	45.081344
229.135742	-417.092285	49.367905
222.612305	-410.976562	53.647189
212.419434	-420.354004	57.909139
206.711426	-455.417480	62.141495
201.411133	-484.772949	66.334080
208.342285	-507.604980	70.481830
214.050293	-516.574707	74.586165
218.535156	-525.952148	78.650738
212.419434	-533.291016	82.675330
209.157715	-548.376465	86.654630
209.973145	-556.938477	90.583405
213.642578	-552.045898	94.460351
219.350586	-554.492187	98.287385
219.350586	-558.977051	102.066709
221.389160	-558.977051	105.798549
216.496582	-575.693359	109.480922
215.273437	-593.632812	113.109844
216.088867	-597.709961	116.682210
216.904297	-598.525391	120.197150
215.681152	-615.241699	123.653895
216.088867	-628.696289	127.051128
211.604004	-644.597168	130.386690
213.234863	-651.936035	133.658052
219.350586	-661.313477	136.865969
224.650879	-661.313477	140.014981
227.097168	-669.467773	143.109480
225.466309	-676.398926	146.150935
225.058594	-676.398926	149.138233
227.097168	-684.145508	152.070581
228.320312	-690.261230	154.948673
229.951172	-694.338379	157.773550
231.989746	-697.192383	160.546370
227.912598	-699.230957	163.267005
229.135742	-709.016113	165.933677
225.058594	-719.616699	168.544529
217.719727	-734.294434	171.095600
211.604004	-732.663574	173.580383
203.449707	-744.487305	175.991989
204.672852	-741.225586	178.325631
204.265137	-750.195312	180.580782
205.080566	-756.718750	182.758952
198.557129	-766.096191	184.859948
196.926270	-786.481934	186.881416
196.518555	-800.344238	188.822161
187.956543	-801.975098	190.680907
176.132812	-800.344238	192.451708
167.570801	-808.906250	194.125976
159.416504	-797.490234	195.696581
163.493652	-783.627930	197.161108
164.309082	-780.773926	198.523038
161.862793	-796.674805	199.786447
154.523926	-811.352539	200.951472
148.000488	-826.030273	202.015136
143.923340	-835.000000	202.974488
138.623047	-834.592285	203.827998
132.507324	-822.360840	204.574104
131.284180	-815.837402	205.211962
137.807617	-835.000000	205.745271
142.700195	-835.000000	206.182600
145.554199	-835.000000	206.532872
141.884766	-835.000000	206.801485
142.700195	-830.107422	206.990892
145.961914	-835.000000	207.104805
145.554199	-833.369141	207.148347
154.523926	-816.652832	207.127659
152.893066	-807.275391	207.049850
152.077637	-804.829102	206.918875
150.446777	-812.575684	206.735997
147.592773	-805.644531	206.501938
148.408203	-821.545410	206.217550
155.747070	-826.030273	205.887019
163.901367	-822.768555	205.518995
161.047363	-817.875977	205.121026
152.893066	-823.583984	204.693388
156.154785	-828.884277	204.233697
151.262207	-823.583984	203.742176
153.300781	-819.506836	203.219604
153.300781	-814.614258	202.667724
147.592773	-797.897949	202.087480
148.815918	-797.082520	201.478089
140.661621	-794.636230	200.838514
141.069336	-778.327637	200.166939
146.777344	-777.919922	199.465090
144.331055	-773.842773	198.737541
145.146484	-783.220215	197.986649
143.515625	-783.220215	197.213618
144.738770	-781.589355	196.419943
148.408203	-789.743652	195.608570
149.223633	-790.151367	194.783618
150.446777	-787.705078	193.948283
152.485352	-775.881348	193.105304
157.785645	-754.272461	192.258700
159.416504	-748.564453	191.413272
161.047363	-725.324707	190.572532
163.085937	-706.162109	189.738973
167.570801	-684.145508	188.915823
171.240234	-673.137207	188.107330
174.909668	-656.013184	187.317750
180.617676	-636.442871	186.551447
183.471680	-640.520020	185.812883
184.694824	-626.250000	185.104898
183.471680	-621.765137	184.427920
186.733398	-609.125977	183.781793
192.441406	-602.194824	183.168688
196.518555	-593.632812	182.592680
200.595703	-594.040527	182.057406
200.187988	-585.886230	181.564688
201.411133	-568.354492	181.114294
197.741699	-547.968750	180.704351
199.780273	-528.398437	180.332385
203.449707	-523.098145	179.998138
207.119141	-512.497559	179.703679
199.372559	-501.489258	179.448371
201.003418	-473.764648	179.228031
201.003418	-453.378906	179.040127
205.488281	-451.748047	178.884994
203.449707	-441.555176	178.763130
198.964844	-422.800293	178.672086
198.557129	-417.500000	178.607561
201.003418	-421.984863	178.567671
196.518555	-410.161133	178.551343
201.003418	-392.221680	178.556990
200.595703	-375.913086	178.584681
200.187988	-354.711914	178.634246
197.741699	-333.918457	178.703677
194.887695	-329.433594	178.789859
188.771973	-326.171875	178.888194
189.587402	-307.416992	178.994279
184.694824	-279.692383	179.105189
177.763672	-262.568359	179.216410
177.763672	-245.036621	179.322886
179.394531	-243.405762	179.423327
171.240234	-243.405762	179.516616
170.424805	-235.251465	179.598909
163.901367	-213.642578	179.666334
158.601074	-196.518555	179.714460
147.185059	-195.703125	179.736613
141.069336	-186.733398	179.724952
139.438477	-179.802246	179.674379
132.507324	-151.262207	179.582428
129.245605	-142.700195	179.446143
129.245605	-120.683594	179.264142
132.507324	-103.967285	179.038688
125.576172	-97.851562	178.771879
121.091309	-83.581543	178.461908
119.052734	-62.380371	178.106342
124.760742	-47.294922	177.706873
121.091309	-41.586914	177.267409
120.683594	-29.763184	176.789688
113.752441	-19.570313	176.272948
108.452148	-4.892578	175.714357
99.074707	2.854004	175.109331
101.113281	8.562012	174.454827
97.851562	9.785156	173.751524
98.666992	16.308594	173.001410
104.375000	28.947754	172.208464
101.113281	48.110352	171.377817
107.229004	63.603516	170.513443
104.375000	82.766113	169.619384
103.967285	100.297852	168.697925
96.628418	112.121582	167.748384
89.697266	121.499023	166.767248
87.250977	130.876465	165.750768
80.319824	137.399902	164.696686
73.388672	148.408203	163.601709
72.573242	148.408203	162.463165
62.788086	155.747070	161.279404
61.564941	165.124512	160.048043
58.710937	175.317383	158.768570
55.856934	176.948242	157.441939
48.518066	174.909668	156.067503
50.964355	192.033691	154.644911
47.702637	193.664551	153.176340
50.556641	205.080566	151.665095
42.402344	216.496582	150.113198
35.471191	228.320312	148.518767
27.724609	236.474609	146.877587
28.132324	243.813477	145.187717
21.608887	251.152344	143.449604
15.900879	259.714355	141.662441
11.008301	269.091797	139.824331
10.600586	265.830078	137.935337
13.454590	267.460937	135.999000
13.046875	275.615234	134.020785
3.261719	288.662109	132.002634
0.407715	293.962402	129.942478
-7.746582	295.593262	127.838174
-12.639160	308.232422	125.687615
-17.124023	320.871582	123.489266
-22.424316	322.094727	121.242568
-28.540039	329.841309	118.946504
-30.986328	347.780762	116.600476
-37.509766	359.196777	114.204606
-36.286621	371.835937	111.759923
-37.102051	368.981934	109.269922
-41.179199	376.320801	106.738095
-46.887207	383.251953	104.165141
-61.564941	382.028809	101.547703
-72.980957	381.213379	98.878336
-81.542969	373.874512	96.150097
-86.843262	375.097656	93.359629
-91.735840	372.651367	90.506367
-97.443848	368.574219	87.590691
-89.289551	368.166504	84.616351
-79.096680	364.497070	81.594593
-88.474121	381.213379	78.535775
-105.190430	394.260254	75.438149
-106.413574	409.753418	72.295162
-109.675293	420.354004	69.106282
-107.636719	436.662598	65.875439
-117.421875	434.216309	62.605573
-118.645020	421.984863	59.296962
-123.945312	431.362305	55.950233
-118.645020	425.654297	52.568915
-122.722168	413.422852	49.158451
-126.391602	413.830566	45.722031
-125.168457	421.169434	42.261764
-123.537598	416.684570	38.782474
-118.645020	411.384277	35.291143
-120.683594	417.092285	31.794448
-129.653320	415.461426	28.294163
-129.653320	424.431152	24.788882
-125.576172	438.293457	21.281230
-121.906738	459.902344	17.778104
-123.129883	473.356934	14.285658
-125.168457	476.618652	10.806865
-128.837891	471.318359	7.342404
-128.022461	466.018066	3.893017
-126.391602	461.533203	0.461538
-130.468750	454.194336	-2.949238
-132.099609	453.786621	-6.338807
-133.322754	449.709473	-9.706819
-133.730469	437.478027	-13.051889
-140.661621	426.062012	-16.373898
-143.923340	435.031738	-19.675007
-140.661621	440.739746	-22.955370
-129.653320	437.885742	-26.208733
-123.945312	437.885742	-29.424760
-121.091309	438.293457	-32.595125
-119.868164	449.709473	-35.715244
-134.953613	464.794922	-38.786687
-135.361328	477.026367	-41.816143
-144.331055	471.726074	-44.808865
-148.815918	457.863770	-47.769371
-143.515625	451.340332	-50.699330
-135.361328	457.456055	-53.593298
-133.730469	464.387207	-56.443761
-140.253906	459.086914	-59.248410
-141.477051	453.786621	-62.009694
-133.730469	435.847168	-64.726999
-128.837891	438.293457	-67.394427
-124.353027	443.593750	-70.005653
-121.906738	441.555176	-72.556195
-119.460449	437.478027	-75.043018
-121.499023	438.293457	-77.465004
-123.129883	443.593750	-79.823402
-123.945312	457.456055	-82.120222
-120.683594	466.018066	-84.355841
-116.606445	463.164063	-86.528113
-123.129883	460.310059	-88.636341
-129.653320	472.133789	-90.685282
-131.691895	470.910645	-92.681144
-135.361328	465.202637	-94.627986
-132.915039	452.155762	-96.527803
-132.507324	439.108887	-98.380301
-135.769043	423.615723	-100.185679
-134.953613	419.946289	-101.945566
-135.769043	428.916016	-103.660818
-131.284180	431.770020	-105.330691
-132.915039	433.808594	-106.953773
-123.129883	439.516602	-108.527587
-128.022461	440.332031	-110.049285
-143.107910	419.130859	-111.523591
-147.185059	423.208008	-112.961387
-152.485352	432.585449	-114.370312
-152.485352	444.816895	-115.754051
-143.923340	457.048340	-117.111434
-139.030762	444.816895	-118.436446
-143.923340	433.808594	-119.725626
-145.554199	426.062012	-120.980957
-151.669922	419.538574	-122.206403
-155.339355	396.706543	-123.406636
-153.708496	390.998535	-124.584643
-147.185059	399.968262	-125.738586
-148.408203	408.530273	-126.864810
-147.592773	411.384277	-127.962101
-145.146484	399.152832	-129.029869
-140.253906	390.183105	-130.065544
-134.953613	401.599121	-131.064887
-134.545898	412.199707	-132.024318
-136.176758	410.161133	-132.943458
-134.953613	401.599121	-133.823596
-132.915039	385.698242	-134.664824
-130.468750	380.805664	-135.465988
-117.829590	379.582520	-136.222919
-115.383301	377.543945	-136.928902
-111.306152	373.059082	-137.579827
-103.151855	374.689941	-138.172577
-102.744141	385.290527	-138.703705
-103.967285	379.174805	-139.173408
-93.366699	355.527344	-139.581729
-88.474121	340.849609	-139.924486
-87.250977	338.811035	-140.198614
-81.542969	356.342773	-140.403507
-77.465820	365.312500	-140.537696
-76.650391	363.273926	-140.600388
-75.427246	359.196777	-140.592936
-79.912109	350.227051	-140.518849
-79.912109	334.733887	-140.383258
-70.534668	320.463867	-140.187807
-62.380371	324.541016	-139.928346
-59.526367	327.395020	-139.600551
-59.118652	324.948730	-139.204113
-53.410645	327.395020	-138.740098
-45.256348	319.648437	-138.206806
-41.179199	317.609863	-137.601082
-33.432617	307.009277	-136.920527
-28.540039	309.047852	-136.162819
-17.531738	325.356445	-135.324755
-18.347168	307.824707	-134.404000
-8.154297	298.039551	-133.400130
-15.085449	289.477539	-132.314645
-15.900879	269.499512	-131.153562
-13.046875	251.560059	-129.923026
-8.969727	245.444336	-128.625121
-8.154297	236.066895	-127.261157
-6.523437	233.212891	-125.833634
-4.892578	237.697754	-124.345431
0.000000	229.951172	-122.798292
1.630859	209.973145	-121.193087
8.562012	197.333984	-119.530169
20.793457	182.656250	-117.806618
23.647461	169.609375	-116.017997
25.278320	171.240234	-114.163993
26.501465	167.570801	-112.247588
24.870605	163.901367	-110.272982
33.024902	158.601074	-108.243279
39.140625	161.047363	-106.157647
46.887207	144.331055	-104.013423
45.664062	122.722168	-101.810158
45.664062	116.606445	-99.551451
47.294922	100.297852	-97.242080
48.110352	90.512695	-94.885698
55.856934	83.989258	-92.484017
54.633789	80.319824	-90.037653
51.372070	63.195801	-87.550664
53.002930	58.710937	-85.029111
59.934082	53.818359	-82.475390
62.788086	34.655762	-79.888821
72.165527	27.724609	-77.267827
70.942383	29.763184	-74.611368
71.350098	22.424316	-71.921913
68.088379	13.046875	-69.204748
59.118652	2.854004	-66.467947
67.272949	-4.077148	-63.718701
72.165527	-18.754883	-60.957251
77.058105	-27.316895	-58.181054
83.173828	-31.801758	-55.388233
87.250977	-33.024902	-52.576906
93.366699	-38.325195	-49.745510
89.289551	-58.303223	-46.894718
86.435547	-84.396973	-44.029689
86.843262	-101.520996	-41.156541
99.074707	-103.559570	-38.275985
110.490723	-104.375000	-35.381850
114.975586	-111.306152	-32.467404
116.606445	-121.906738	-29.530846
114.567871	-135.769043	-26.574764
112.529297	-135.361328	-23.604327
112.121582	-130.876465	-20.625021
119.868164	-139.438477	-17.639093
127.207031	-155.747070	-14.644089
132.507324	-164.716797	-11.636286
142.700195	-166.755371	-8.612032
149.223633	-181.025391	-5.566792
147.592773	-191.218262	-2.499038
148.000488	-198.557129	0.587949
149.223633	-207.934570	3.690162
156.970215	-216.904297	6.806435
164.716797	-217.719727	9.939283
174.501953	-221.796875	13.093338
173.278809	-223.427734	16.271180
173.686523	-238.105469	19.470426
176.948242	-242.998047	22.687495
180.209961	-251.560059	25.920877
187.956543	-253.598633	29.171039
195.703125	-265.422363	32.440769
199.780273	-277.653809	35.732920
198.964844	-283.769531	39.046978
206.711426	-295.185547	42.381148
216.088867	-305.786133	45.737332
212.011719	-317.609863	49.116898
209.565430	-329.433594	52.514914
210.788574	-335.957031	55.924938
221.796875	-333.510742	59.345735
229.135742	-337.995605	62.781255
233.620605	-356.342773	66.235146
233.620605	-363.681641	69.707231
231.989746	-375.913086	73.193787
227.912598	-373.059082	76.688566
225.874023	-367.351074	80.184418
229.951172	-376.320801	83.676550
237.697754	-379.174805	87.165103
241.774902	-379.990234	90.652786
242.998047	-388.144531	94.140470
243.813477	-402.006836	97.626419
244.628906	-414.238281	101.108014
253.190918	-431.362305	104.584684
258.898926	-444.409180	108.059212
258.898926	-452.155762	111.533292
256.044922	-461.940918	115.004043
259.306641	-457.048340	118.467327
256.044922	-461.940918	121.919950
265.422363	-464.794922	125.360374
264.199219	-472.541504	128.789285
260.529785	-475.395508	132.204459
259.714355	-470.910645	135.600467
267.460937	-457.863770	138.975251
265.422363	-459.086914	142.329546
269.091797	-481.918945	145.662686
279.284668	-493.742676	148.976195
278.876953	-502.304688	152.273695
269.091797	-504.750977	155.552337
265.422363	-508.012695	158.803320
259.306641	-511.682129	162.018377
270.722656	-513.312988	165.194578
276.838379	-519.428711	168.336345
279.284668	-540.629883	171.448792
276.430664	-545.930176	174.532119
270.722656	-551.638184	177.582048
261.752930	-542.260742	180.590785
258.083496	-541.037598	183.549859
257.675781	-534.921875	186.454018
258.083496	-518.205566	189.301630
257.268066	-530.437012	192.092157
255.637207	-544.707031	194.824505
265.422363	-536.960449	197.499937
265.422363	-530.437012	200.122935
263.791504	-538.183594	202.695260
260.937500	-548.376465	205.214898
260.122070	-568.762207	207.679449
257.675781	-580.993652	210.086997
257.268066	-577.731934	212.435990
245.852051	-570.393066	214.722756
247.890625	-573.247070	216.942144
249.113770	-568.762207	219.093268
251.967773	-569.577637	221.178889
255.229492	-569.577637	223.202462
256.044922	-567.539062	225.167348
253.190918	-557.753906	227.074679
250.744629	-555.307617	228.923130
249.521484	-558.977051	230.711071
247.890625	-572.839355	232.437652
241.774902	-578.139648	234.101053
241.367188	-580.178223	235.698643
242.998047	-581.401367	237.230331
245.036621	-580.585937	238.698781
241.367188	-587.109375	240.105849
241.367188	-580.585937	241.451447
243.813477	-576.916504	242.736625
247.890625	-585.886230	243.965126
245.444336	-586.293945	245.140371
241.367188	-575.693359	246.262252
235.251465	-571.208496	247.327617
243.405762	-567.539062	248.335765
240.959473	-563.869629	249.290266
239.736328	-575.285645	250.193083
236.882324	-571.616211	251.043573
240.144043	-560.607910	251.842251
240.959473	-570.393066	252.591804
237.290039	-581.401367	253.293990
231.174316	-575.693359	253.946899
227.912598	-572.839355	254.547044
225.874023	-566.315918	255.092328
231.174316	-563.461914	255.584131
231.989746	-559.792480	256.026821
225.874023	-559.792480	256.422373
219.758301	-547.968750	256.767903
218.535156	-532.883301	257.060173
214.050293	-523.098145	257.297861
217.312012	-516.982422	257.481372
220.166016	-523.505859	257.614251
224.243164	-528.806152	257.702082
224.243164	-536.552734	257.749705
224.243164	-541.037598	257.759963
219.350586	-539.814453	257.733253
214.050293	-529.621582	257.667315
223.427734	-515.351562	257.562390
219.350586	-506.381836	257.422818
213.642578	-522.282715	257.249138
211.196289	-519.428711	257.038365
210.788574	-504.750977	256.789510
211.196289	-499.042969	256.503809
216.088867	-496.596680	256.184627
213.234863	-503.935547	255.835741
214.050293	-516.166992	255.458866
213.234863	-497.819824	255.055130
205.895996	-472.133789	254.624033
202.634277	-473.764648	254.162340
203.449707	-494.965820	253.668495
191.625977	-495.373535	253.140941
187.956543	-492.927246	252.574798
194.887695	-483.957520	251.969195
199.372559	-471.726074	251.330413
200.595703	-461.940918	250.665126
196.110840	-468.056641	249.975875
197.741699	-471.726074	249.262864
197.333984	-475.803223	248.527491
196.926270	-483.142090	247.771648
192.849121	-471.726074	246.995666
187.956543	-468.056641	246.197738
188.771973	-459.494629	245.376269
192.441406	-459.494629	244.533296
185.917969	-451.340332	243.671109
183.879395	-447.263184	242.788484
181.025391	-443.186035	241.883742
176.948242	-440.739746	240.955728
171.647949	-451.748047	240.002189
171.240234	-451.340332	239.021320
170.832520	-439.516602	238.013676
173.278809	-428.100586	236.981852
178.579102	-435.847168	235.930597
179.802246	-439.108887	234.865645
178.986816	-433.400879	233.790557
176.132812	-431.362305	232.706064
177.763672	-425.654297	231.612447
179.394531	-417.500000	230.511805
174.501953	-421.169434	229.405611
174.909668	-427.285156	228.293246
181.840820	-417.500000	227.176906
176.948242	-414.238281	226.060409
172.871094	-416.684570	224.943115
171.240234	-408.122559	223.822377
175.317383	-412.607422	222.698672
175.317383	-412.199707	221.575030
166.755371	-413.422852	220.451449
160.639648	-407.307129	219.323004
156.562500	-399.968262	218.184567
161.862793	-407.307129	217.035430
167.163086	-402.006836	215.880392
168.793945	-401.599121	214.725539
169.609375	-391.813965	213.574541
167.978516	-384.882812	212.428859
163.085937	-389.367676	211.287529
157.377930	-390.183105	210.147055
161.455078	-381.213379	209.005384
164.309082	-369.797363	207.865161
159.824219	-371.428223	206.728911
156.970215	-379.174805	205.595292
155.339355	-387.736816	204.462271
165.124512	-378.767090	203.331973
168.793945	-378.767090	202.211140
160.639648	-376.728516	201.102878
154.931641	-368.166504	200.002960
144.331055	-366.127930	198.904241
148.408203	-375.505371	197.801821
148.815918	-371.835937	196.696491
145.961914	-368.166504	195.590080
149.631348	-364.497070	194.483372
149.223633	-357.158203	193.378614
146.777344	-347.780762	192.276985
141.884766	-347.373047	191.176823
143.515625	-348.596191	190.076434
146.777344	-354.711914	188.977412
150.446777	-352.673340	187.883956
150.854492	-348.596191	186.799855
147.185059	-345.742187	185.726038
143.923340	-349.819336	184.660490
144.331055	-356.342773	183.601384
141.069336	-359.196777	182.548044
143.107910	-351.450195	181.500243
144.331055	-337.180176	180.459366
144.738770	-330.656738	179.427480
143.515625	-333.510742	178.405475
143.923340	-327.395020	177.393548
138.623047	-336.364746	176.390807
143.107910	-344.926758	175.396390
143.515625	-336.364746	174.412036
136.992188	-325.356445	173.438001
136.176758	-320.056152	172.471307
136.584473	-318.017578	171.510603
135.769043	-311.901855	170.556411
133.322754	-311.086426	169.608477
134.953613	-313.940430	168.666440
130.876465	-313.532715	167.730168
129.245605	-319.240723	166.798240
128.837891	-317.609863	165.869404
124.353027	-315.571289	164.942675
134.953613	-316.794434	164.019253
134.953613	-307.416992	163.104349
136.992188	-296.408691	162.201859
135.361328	-290.700684	161.312811
131.284180	-282.138672	160.436138
123.537598	-276.022949	159.567595
117.829590	-280.507812	158.701085
119.460449	-291.108398	157.832823
112.937012	-288.662109	156.961443
115.791016	-294.777832	156.085753
114.975586	-297.631836	155.206440
117.829590	-296.000977	154.325663
119.460449	-289.477539	153.446128
117.829590	-297.224121	152.569881
119.460449	-287.031250	151.697693
116.606445	-281.323242	150.829976
112.937012	-276.838379	149.965404
116.198730	-276.022949	149.102921
126.391602	-276.022949	148.246768
119.868164	-277.246094	147.402055
112.121582	-274.799805	146.566366
105.598145	-270.722656	145.732673
104.375000	-262.976074	144.895980
103.967285	-256.044922	144.054836
97.851562	-257.268066	143.208187
101.113281	-266.645508	142.354707
100.705566	-268.276367	141.495603
97.851562	-267.868652	140.631926
95.405273	-271.130371	139.762540
97.851562	-276.838379	138.887227
92.958984	-281.323242	138.006531
93.774414	-267.868652	137.119908
97.851562	-261.345215	136.228773
101.113281	-245.444336	135.337479
97.036133	-228.728027	134.448684
102.336426	-231.582031	133.563316
97.443848	-235.251465	132.682578
100.705566	-230.766602	131.806865
95.812988	-230.766602	130.936011
91.328125	-230.766602	130.067821
91.328125	-215.273437	129.199444
88.066406	-220.981445	128.329766
88.881836	-225.466309	127.458261
89.697266	-231.582031	126.585712
90.920410	-236.066895	125.714049
88.881836	-243.405762	124.844467
85.212402	-243.813477	123.976074
92.551270	-239.328613	123.109191
94.589844	-240.144043	122.248089
94.589844	-231.989746	121.396409
91.328125	-223.427734	120.554298
89.289551	-212.827148	119.719958
82.358398	-209.973145	118.890166
76.242676	-201.411133	118.059802
73.388672	-199.780273	117.223983
72.980957	-198.964844	116.380621
72.980957	-192.441406	115.529979
72.573242	-196.926270	114.673067
69.719238	-209.157715	113.810106
72.573242	-215.273437	112.941420
68.903809	-219.350586	112.067967
68.496094	-223.835449	111.189596
68.496094	-213.234863	110.306273
69.719238	-199.372559	109.419366
72.980957	-196.926270	108.531469
75.427246	-194.479980	107.646237
74.611816	-201.411133	106.766407
76.242676	-201.411133	105.893301
64.826660	-199.780273	105.025177
63.603516	-189.587402	104.156829
67.272949	-187.141113	103.286503
70.942383	-189.179687	102.417774
60.341797	-193.664551	101.551588
55.041504	-206.711426	100.682744
59.934082	-200.595703	99.807990
77.058105	-188.771973	98.934190
70.942383	-187.956543	98.070894
63.603516	-194.887695	97.217891
67.272949	-197.741699	96.371112
75.427246	-198.557129	95.533306
73.388672	-197.741699	94.709661
66.865234	-194.479980	93.899757
63.195801	-194.887695	93.098896
69.311523	-185.102539	92.305475
72.573242	-176.948242	91.523096
72.573242	-163.085937	90.755401
67.680664	-165.124512	90.002103
68.496094	-175.317383	89.260985
63.195801	-176.132812	88.530025
60.341797	-175.317383	87.806209
52.187500	-174.909668	87.084942
55.041504	-164.716797	86.362582
55.449219	-165.532227	85.639401
53.410645	-163.493652	84.916625
55.449219	-163.901367	84.194566
55.856934	-161.047363	83.474595
60.749512	-159.824219	82.759406
66.457520	-159.008789	82.053713
61.564941	-163.085937	81.360825
65.234375	-177.763672	80.680783
57.080078	-175.725098	80.012220
53.818359	-168.793945	79.351142
56.264648	-171.647949	78.694690
50.964355	-170.017090	78.042381
44.848633	-161.455078	77.390964
53.002930	-160.639648	76.738620
50.556641	-159.416504	76.088111
56.264648	-160.231934	75.442394
54.633789	-171.647949	74.803858
57.487793	-178.579102	74.174240
62.788086	-164.309082	73.556263
59.526367	-148.408203	72.952724
51.372070	-141.069336	72.361141
48.110352	-136.992188	71.775596
46.887207	-139.030762	71.192253
49.333496	-140.661621	70.610769
50.964355	-141.069336	70.033063
50.556641	-136.992188	69.460963
49.333496	-142.700195	68.894709
49.333496	-139.030762	68.333881
47.294922	-127.207031	67.777967
47.702637	-128.837891	67.226363
56.264648	-141.477051	66.681382
57.487793	-159.008789	66.148222
50.556641	-161.862793	65.627980
43.625488	-163.085937	65.115476
50.556641	-152.893066	64.607257
55.856934	-136.584473	64.106874
55.041504	-120.275879	63.618891
41.586914	-111.713867	63.140687
32.617187	-115.383301	62.662682
34.248047	-123.129883	62.177553
34.248047	-121.906738	61.684630
33.432617	-116.606445	61.185001
37.102051	-112.121582	60.680029
34.655762	-114.567871	60.171558
37.102051	-106.413574	59.660602
34.248047	-103.967285	59.147704
36.694336	-105.190430	58.633276
37.102051	-115.791016	58.118571
32.209473	-120.275879	57.603713
37.102051	-121.091309	57.088074
35.063477	-120.275879	56.572978
38.325195	-116.198730	56.060015
37.509766	-117.829590	55.550590
38.325195	-114.567871	55.045721
39.140625	-111.306152	54.546160
35.063477	-120.275879	54.051764
32.617187	-114.975586	53.560247
33.024902	-93.774414	53.069746
33.024902	-87.658691	52.580303
33.024902	-92.143555	52.092490
31.801758	-99.074707	51.606425
29.355469	-108.859863	51.121254
29.763184	-101.928711	50.635948
30.578613	-99.074707	50.150808
26.909180	-100.705566	49.665907
29.355469	-116.198730	49.180674
30.578613	-110.490723	48.696276
28.540039	-97.851562	48.213934
31.394043	-99.890137	47.734062
27.316895	-96.220703	47.256944
26.501465	-93.366699	46.781351
29.355469	-85.212402	46.306964
31.394043	-82.766113	45.836047
33.024902	-83.581543	45.371187
29.355469	-85.212402	44.913026
30.986328	-91.328125	44.460672
28.132324	-77.465820	44.013479
30.986328	-75.427246	43.571362
28.540039	-84.804687	43.134664
28.947754	-88.066406	42.703168
31.801758	-83.989258	42.277414
25.686035	-83.989258	41.857588
24.462891	-90.512695	41.441080
24.055176	-92.551270	41.025820
23.647461	-84.396973	40.611544
27.316895	-79.504395	40.199287
26.501465	-72.573242	39.790997
23.647461	-82.766113	39.386708
18.754883	-94.997559	38.983665
20.385742	-92.143555	38.579344
25.686035	-96.220703	38.175192
29.763184	-92.958984	37.775908
28.947754	-83.581543	37.385013
21.201172	-92.958984	37.001145
19.162598	-89.697266	36.619569
24.870605	-76.242676	36.238975
24.462891	-75.834961	35.862076
21.608887	-79.912109	35.489635
27.316895	-76.650391	35.121735
32.617187	-73.388672	34.762198
28.540039	-79.096680	34.414235
26.501465	-82.766113	34.076403
22.424316	-76.650391	33.745385
19.162598	-69.311523	33.417685
22.832031	-62.380371	33.091677
24.462891	-58.303223	32.769125
21.201172	-60.749512	32.451176
20.385742	-65.234375	32.136456
24.870605	-67.272949	31.825043
16.716309	-65.642090	31.517114
18.754883	-66.865234	31.210263
18.754883	-65.642090	30.903694
24.462891	-66.865234	30.599751
25.278320	-65.642090	30.301847
16.716309	-56.264648	30.009701
11.416016	-52.595215	29.717681
11.008301	-59.118652	29.420949
14.270020	-60.749512	29.119279
13.454590	-60.341797	28.814606
20.385742	-57.080078	28.509633
19.162598	-63.195801	28.207802
15.493164	-61.564941	27.909501
15.085449	-51.372070	27.612528
15.085449	-46.887207	27.315955
13.046875	-46.887207	27.019435
8.562012	-55.856934	26.721027
13.454590	-59.118652	26.419524
25.278320	-55.449219	26.119881
26.501465	-54.633789	25.830146
23.239746	-56.672363	25.553068
13.046875	-57.487793	25.284294
7.746582	-51.372070	25.016126
8.562012	-47.702637	24.743570
11.008301	-36.286621	24.466790
8.562012	-35.063477	24.187126
8.562012	-28.132324	23.904358
15.085449	-28.132324	23.619997
14.677734	-26.501465	23.337732
15.900879	-35.878906	23.059587
10.600586	-40.771484	22.784810
14.270020	-40.363770	22.512038
11.008301	-44.848633	22.241145
19.570313	-43.217773	21.973830
19.978027	-43.625488	21.713961
9.785156	-51.779785	21.461259
0.815430	-49.741211	21.208060
1.630859	-49.333496	20.947477
2.854004	-44.440918	20.678513
5.708008	-49.741211	20.403436
5.708008	-39.548340	20.124632
4.077148	-28.947754	19.842885
4.077148	-21.608887	19.557768
12.231445	-23.239746	19.271447
14.677734	-33.024902	18.989202
10.600586	-35.063477	18.713504
11.823730	-24.462891	18.443166
8.562012	-14.677734	18.176945
13.454590	-21.201172	17.914826
8.154297	-33.024902	17.657221
11.008301	-51.372070	17.403446
7.746582	-53.410645	17.152843
12.639160	-47.702637	16.905855
12.231445	-31.394043	16.664184
10.600586	-25.686035	16.428484
12.639160	-25.686035	16.198305
17.531738	-13.046875	15.975567
15.900879	0.407715	15.762843
14.270020	-0.407715	15.559903
9.785156	-18.347168	15.364054
1.223145	-19.978027	15.170147
9.785156	-19.570313	14.974870
6.931152	-14.677734	14.779990
11.823730	-2.446289	14.587728
19.570313	-11.008301	14.402024
18.347168	-19.978027	14.227809
13.454590	-31.394043	14.064853
11.823730	-33.840332	13.909497
11.823730	-30.578613	13.759417
9.785156	-21.608887	13.613568
8.969727	-19.978027	13.470628
3.669434	-20.385742	13.328256
0.000000	-9.785156	13.182616
10.600586	-9.785156	13.033472
14.677734	-16.716309	12.886816
15.493164	-11.416016	12.747831
11.008301	6.931152	12.616636
9.785156	4.077148	12.490553
9.377441	-3.261719	12.367554
4.484863	-4.077148	12.245810
2.446289	-8.562012	12.122176
5.300293	-13.454590	11.995264
9.377441	-19.978027	11.867389
12.231445	-21.201172	11.742370
8.562012	-28.947754	11.621817
3.261719	-22.424316	11.503083
5.300293	-15.900879	11.382998
3.669434	-4.484863	11.260999
5.708008	8.562012	11.137515
4.892578	7.746582	11.013172
9.377441	-4.077148	10.889424
4.892578	-9.785156	10.767339
5.708008	-11.008301	10.646006
4.484863	-7.746582	10.524446
-1.223145	0.407715	10.400871
-11.823730	0.815430	10.269396
-18.754883	-13.046875	10.121628
-15.085449	-18.754883	9.952998
-7.338867	-6.931152	9.766772
-4.892578	0.815430	9.569618
-13.046875	-0.407715	9.363417
-16.716309	-3.261719	9.144190
-14.270020	-2.446289	8.909331
-5.708008	-4.892578	8.662365
-4.484863	-8.154297	8.409562
-5.300293	-15.493164	8.154131
-12.231445	-2.446289	7.894530
-16.716309	14.677734	7.626188
-9.785156	20.385742	7.347426
-4.892578	14.270020	7.062758
-9.785156	8.562012	6.775858
-14.270020	16.716309	6.484663
-16.308594	9.785156	6.185498
-14.677734	8.969727	5.877218
-11.008301	7.338867	5.561844
-3.261719	4.484863	5.244421
-5.300293	-4.077148	4.929873
-11.823730	-2.854004	4.617651
-11.823730	2.854004	4.304015
-11.416016	4.077148	3.987752
-8.154297	8.562012	3.670384
-14.270020	9.377441	3.352509
-14.270020	20.385742	3.032127
-12.639160	10.600586	2.708512
-8.969727	16.308594	2.383969
-9.785156	26.501465	2.061025
-15.493164	17.124023	1.738982
-19.162598	4.077148	1.413961
-21.201172	-9.785156	1.082475
-19.570313	-12.231445	0.743560
-9.785156	-6.523437	0.400799
-14.677734	6.931152	0.059011
-11.823730	4.892578	-0.280739
-15.900879	8.562012	-0.619043
-16.716309	4.484863	-0.957217
-15.493164	8.562012	-1.296091
-17.531738	8.562012	-1.635384
-16.716309	8.154297	-1.975256
-13.046875	11.416016	-2.314466
-4.077148	8.154297	-2.648190
3.669434	13.046875	-2.968615
-1.223145	7.746582	-3.270865
-4.077148	9.785156	-3.556732
-0.815430	27.724609	-3.828586
-8.154297	37.509766	-4.087739
-11.008301	32.617187	-4.338244
-8.969727	13.046875	-4.583121
-8.154297	2.854004	-4.821832
-7.746582	-5.300293	-5.053335
-14.677734	-4.077148	-5.279106
-14.270020	9.377441	-5.502594
-4.077148	20.385742	-5.722596
-4.892578	17.124023	-5.933793
-3.669434	10.600586	-6.133789
-5.300293	11.416016	-6.322883
-4.892578	14.677734	-6.501799
-2.446289	17.124023	-6.670381
1.630859	13.046875	-6.826457
5.300293	16.716309	-6.966681
8.562012	18.347168	-7.087769
11.823730	2.854004	-7.186925
15.493164	5.300293	-7.261506
23.647461	6.523437	-7.307620
30.578613	12.231445	-7.319439
28.540039	8.969727	-7.293257
27.724609	19.162598	-7.230289
24.462891	19.978027	-7.134087
27.316895	16.308594	-7.007438
31.394043	15.900879	-6.850139
35.063477	9.785156	-6.659891
36.286621	19.162598	-6.435065
36.694336	34.655762	-6.175751
38.732910	42.810059	-5.882713
40.363770	30.986328	-5.556181
39.956055	21.201172	-5.196730
38.325195	24.462891	-4.806444
39.140625	22.424316	-4.387880
43.217773	24.870605	-3.941689
45.664062	22.832031	-3.466591
49.333496	22.424316	-2.961076
49.333496	14.677734	-2.424484
44.440918	20.793457	-1.859107
39.548340	28.540039	-1.270699
39.548340	25.278320	-0.664778
40.363770	26.909180	-0.043846
44.440918	23.647461	0.592265
48.925781	28.132324	1.245733
51.372070	33.432617	1.919153
48.110352	39.956055	2.612522
44.848633	39.548340	3.322279
39.548340	38.732910	4.042973
31.801758	39.548340	4.767673
32.209473	37.509766	5.490084
34.655762	43.625488	6.208369
42.402344	44.033203	6.925391
44.848633	25.686035	7.645806
42.402344	-2.446289	8.371383
36.286621	-6.523437	9.098875
39.548340	8.562012	9.824432
41.179199	23.647461	10.547916
41.179199	30.986328	11.270374
39.140625	29.763184	11.990985
33.432617	39.548340	12.706507
27.316895	41.179199	13.411276
22.424316	37.509766	14.099043
28.540039	42.402344	14.767284
28.947754	43.625488	15.418216
27.316895	52.187500	16.053333
20.793457	42.402344	16.670220
15.900879	30.578613	17.263915
21.608887	25.278320	17.832060
24.055176	22.424316	18.377571
29.763184	15.493164	18.905186
29.355469	19.570313	19.418695
31.394043	24.055176	19.920019
27.316895	20.385742	20.409076
31.394043	15.900879	20.885372
29.763184	20.793457	21.349628
28.947754	39.548340	21.801902
33.024902	44.848633	22.242475
30.578613	51.372070	22.672700
33.432617	44.848633	23.093130
34.655762	38.732910	23.504944
31.394043	36.694336	23.908636
34.248047	29.763184	24.303507
28.947754	28.540039	24.688791
30.986328	27.724609	25.063021
36.694336	31.394043	25.427480
35.063477	24.055176	25.785335
33.024902	27.316895	26.136616
36.286621	36.694336	26.480610
38.325195	38.732910	26.818998
39.548340	59.118652	27.153929
32.617187	66.457520	27.484564
30.578613	52.187500	27.806895
27.316895	35.878906	28.117211
21.608887	44.033203	28.411982
22.424316	48.518066	28.687961
24.462891	47.702637	28.945175
24.055176	48.110352	29.185380
26.501465	42.402344	29.410060
25.686035	41.179199	29.620646
31.394043	38.732910	29.819268
33.432617	33.024902	30.009582
33.024902	19.978027	30.194225
29.763184	14.270020	30.372726
29.355469	9.377441	30.543248
23.647461	9.785156	30.703403
20.385742	22.424316	30.849528
20.385742	35.063477	30.978895
21.608887	39.956055	31.091589
18.754883	47.702637	31.188142
19.570313	64.011230	31.268220
18.754883	55.449219	31.331949
17.124023	53.410645	31.379360
20.385742	51.779785	31.410930
15.493164	45.664062	31.427342
13.046875	44.440918	31.426910
17.531738	44.440918	31.409006
20.385742	39.548340	31.376902
20.385742	36.694336	31.333955
20.385742	38.732910	31.281450
24.462891	48.110352	31.220947
18.347168	51.372070	31.153407
25.278320	52.187500	31.078898
26.501465	56.672363	31.000171
20.385742	65.234375	30.918357
17.531738	64.418945	30.830039
16.716309	59.934082	30.732286
19.978027	61.564941	30.625306
18.754883	66.865234	30.510808
22.424316	72.980957	30.390431
19.978027	68.496094	30.265532
12.639160	58.303223	30.134198
14.677734	49.741211	29.992895
16.716309	41.586914	29.841903
15.493164	37.509766	29.683104
17.531738	39.140625	29.517447
18.754883	45.256348	29.346489
19.570313	48.518066	29.172042
11.823730	58.303223	28.993161
6.931152	62.380371	28.805095
13.046875	61.157227	28.605458
16.716309	56.264648	28.397877
21.201172	51.372070	28.187642
19.162598	48.110352	27.977879
14.677734	47.702637	27.767715
9.785156	52.187500	27.553214
8.969727	48.518066	27.330833
5.708008	53.002930	27.098594
4.484863	55.449219	26.854938
8.562012	55.041504	26.600209
11.823730	44.440918	26.337856
5.708008	45.256348	26.069677
4.484863	54.633789	25.793539
6.931152	55.856934	25.508489
5.300293	62.380371	25.215764
2.854004	70.942383	24.915163
-4.077148	75.427246	24.603824
6.523437	74.611816	24.281063
3.669434	76.242676	23.950733
-1.223145	70.534668	23.613526
0.815430	67.272949	23.267322
-2.446289	52.187500	22.911823
-1.630859	37.509766	22.546858
-2.446289	28.132324	22.172598
0.000000	33.432617	21.790286
3.261719	45.256348	21.402616
4.892578	44.440918	21.013022
8.562012	38.732910	20.624680
9.377441	46.479492	20.240510
8.969727	53.002930	19.862012
5.708008	63.603516	19.488471
1.630859	66.865234	19.117163
2.854004	63.603516	18.745698
-0.815430	60.749512	18.373082
4.484863	76.242676	17.999545
0.000000	66.865234	17.626163
-1.223145	53.818359	17.252037
0.000000	41.179199	16.876093
6.523437	42.402344	16.500845
3.669434	48.925781	16.129653
-11.008301	46.887207	15.759083
-11.823730	47.294922	15.380820
-4.484863	44.848633	14.993255
5.300293	51.779785	14.603428
11.823730	53.818359	14.220633
8.562012	48.518066	13.850095
8.969727	48.110352	13.491755
8.969727	47.702637	13.144794
5.708008	55.041504	12.808311
7.338867	55.041504	12.480900
6.931152	62.788086	12.162387
13.454590	63.603516	11.854631
11.008301	56.264648	11.560146
10.600586	38.732910	11.278960
5.708008	42.402344	11.008625
4.484863	43.625488	10.745935
8.969727	46.479492	10.490068
4.484863	48.110352	10.241842
4.484863	48.925781	9.999993
8.562012	53.410645	9.764379
6.931152	60.341797	9.536679
8.562012	52.595215	9.317415
9.377441	52.187500	9.107080
13.046875	45.664062	8.907309
19.162598	49.741211	8.721583
13.454590	50.964355	8.552138
11.008301	64.826660	8.396379
6.931152	64.826660	8.249995
8.562012	55.856934	8.110357
6.931152	51.372070	7.976664
11.823730	43.625488	7.849645
12.231445	47.294922	7.731379
11.416016	38.732910	7.622880
15.900879	38.325195	7.524674
19.162598	24.055176	7.439399
21.201172	37.509766	7.369985
16.716309	59.118652	7.316536
20.793457	65.642090	7.277635
24.462891	71.757812	7.254591
20.793457	70.942383	7.248746
14.270020	61.564941	7.256647
13.454590	52.187500	7.273060
9.785156	52.187500	7.294474
11.823730	55.856934	7.319034
7.746582	55.856934	7.345608
7.746582	56.672363	7.372471
8.969727	53.002930	7.398830
9.377441	51.779785	7.425432
13.454590	51.372070	7.453843
10.600586	50.556641	7.485451
9.377441	51.372070	7.519329
9.377441	52.595215	7.553945
9.377441	52.187500	7.588909
12.639160	65.642090	7.625024
14.677734	75.834961	7.664451
17.531738	70.534668	7.709674
17.124023	64.826660	7.762311
14.677734	55.856934	7.821865
13.454590	63.195801	7.886246
14.677734	64.418945	7.954202
15.493164	58.710937	8.026037
14.677734	53.002930	8.102034
16.716309	54.633789	8.182247
13.454590	59.526367	8.266400
11.008301	71.757812	8.352406
8.969727	67.680664	8.437412
4.484863	60.749512	8.518482
5.708008	62.788086	8.593141
4.892578	66.865234	8.660849
11.416016	58.303223	8.723457
8.562012	65.642090	8.783594
11.823730	66.865234	8.842380
11.823730	66.457520	8.900778
7.746582	63.603516	8.958530
8.154297	72.165527	9.013569
9.377441	77.058105	9.065426
7.746582	75.427246	9.114511
8.562012	83.989258	9.160578
4.484863	74.611816	9.202642
-0.815430	64.418945	9.237522
-4.892578	59.934082	9.260580
-4.892578	61.157227	9.268792
-8.969727	48.518066	9.260681
-3.261719	45.256348	9.236352
0.815430	51.372070	9.199565
6.931152	58.710937	9.156171
8.562012	70.534668	9.111227
7.746582	68.088379	9.067100
9.377441	72.573242	9.024227
8.562012	75.019531	8.983026
6.523437	81.135254	8.942928
5.300293	68.088379	8.902319
0.815430	65.642090	8.858909
3.669434	64.418945	8.810942
5.708008	58.303223	8.759531
3.669434	63.195801	8.706173
9.377441	59.118652	8.651975
11.416016	62.788086	8.600032
11.008301	59.118652	8.552758
14.270020	64.418945	8.511171
11.823730	64.826660	8.476020
5.708008	64.826660	8.445016
11.008301	69.311523	8.415539
7.746582	87.250977	8.387873
4.077148	93.774414	8.360680
1.630859	92.958984	8.330540
5.300293	82.766113	8.296332
2.446289	65.234375	8.258812
-4.484863	53.818359	8.215815
-4.484863	63.603516	8.163241
-2.854004	74.611816	8.100187
1.630859	74.611816	8.029231
-4.892578	71.350098	7.951875
-2.446289	65.642090	7.866884
0.815430	56.264648	7.775121
4.077148	55.041504	7.680205
2.446289	60.341797	7.584518
6.931152	60.749512	7.489374
9.377441	60.341797	7.397420
8.562012	63.603516	7.310856
0.407715	64.418945	7.227601
2.854004	69.311523	7.143738
0.815430	62.788086	7.057990
0.000000	61.157227	6.969888
-1.223145	70.942383	6.878349
0.407715	72.573242	6.783194
4.077148	77.058105	6.686188
6.931152	76.650391	6.590621
8.562012	77.465820	6.499422
3.669434	69.311523	6.412809
-1.223145	58.303223	6.327238
-1.630859	63.603516	6.238789
0.815430	69.311523	6.146829
0.407715	67.272949	6.052684
4.892578	76.242676	5.958159
3.669434	77.058105	5.865298
5.708008	77.873535	5.775195
0.815430	74.611816	5.687283
1.630859	67.680664	5.599735
-3.261719	64.826660	5.510484
-8.154297	64.826660	5.416061
-9.377441	67.272949	5.312621
-4.892578	59.118652	5.199932
1.223145	62.380371	5.082172
5.300293	62.380371	4.965159
3.261719	55.856934	4.852194
-1.223145	52.187500	4.742033
1.630859	59.118652	4.632525
2.854004	67.272949	4.524396
3.261719	64.418945	4.419197
1.630859	71.350098	4.317014
6.931152	72.573242	4.218459
7.338867	73.796387	4.125936
7.746582	74.611816	4.040981
5.708008	75.019531	3.963126
1.630859	68.496094	3.890098
1.630859	55.856934	3.819076
0.815430	58.303223	3.748758
3.669434	56.264648	3.679509
4.484863	64.011230	3.612851
4.077148	68.088379	3.549809
7.338867	66.457520	3.491142
15.493164	58.303223	3.440461
12.639160	66.865234	3.401850
10.600586	68.496094	3.374908
11.416016	55.856934	3.357530
5.708008	52.595215	3.347693
12.231445	58.303223	3.343994
13.454590	65.642090	3.348410
3.669434	71.350098	3.360353
5.300293	76.650391	3.375078
3.669434	70.534668	3.390302
4.077148	65.642090	3.405665
8.562012	77.873535	3.422108
3.669434	76.650391	3.440744
0.000000	75.427246	3.459097
-0.815430	72.573242	3.473733
1.630859	79.504395	3.484056
2.446289	73.388672	3.491536
7.746582	69.719238	3.498756
11.823730	66.865234	3.509792
5.300293	59.934082	3.526279
4.484863	62.380371	3.545382
-4.077148	71.350098	3.562571
3.669434	80.319824	3.575239
0.815430	85.212402	3.584646
0.000000	90.920410	3.591253
-4.077148	79.504395	3.592931
0.000000	77.465820	3.588615
2.854004	92.551270	3.580402
3.669434	88.474121	3.571263
-3.261719	82.358398	3.560606
-4.077148	70.534668	3.544870
-9.377441	61.564941	3.520661
-5.300293	49.333496	3.486458
-3.261719	51.779785	3.444038
-2.854004	61.564941	3.396065
-5.708008	68.496094	3.342842
-1.223145	68.088379	3.284448
-0.815430	64.826660	3.222893
-4.892578	68.496094	3.158706
-11.823730	81.135254	3.088218
-14.270020	96.628418	3.006433
-11.823730	95.405273	2.911486
-15.085449	91.328125	2.803859
-17.531738	85.212402	2.682526
-15.900879	72.980957	2.546522
-19.162598	62.380371	2.396011
-15.493164	56.672363	2.231489
-16.308594	51.372070	2.054620
-16.716309	43.625488	1.866577
-8.154297	47.294922	1.669886
0.407715	45.256348	1.471784
2.854004	46.479492	1.279934
3.669434	59.526367	1.098004
-4.077148	64.826660	0.924770
-1.223145	73.388672	0.756915
-3.261719	79.504395	0.593301
-3.669434	72.573242	0.433478
-4.892578	66.865234	0.276372
-5.708008	61.564941	0.121061
-7.338867	59.934082	-0.033552
-7.338867	53.002930	-0.188406
-5.708008	58.710937	-0.343328
-4.892578	64.826660	-0.497081
-5.708008	64.011230	-0.648914
0.815430	59.526367	-0.797255
0.000000	70.534668	-0.939107
-4.484863	68.496094	-1.074509
0.815430	64.826660	-1.204788
13.454590	60.749512	-1.325113
5.708008	55.041504	-1.429811
2.446289	54.633789	-1.521086
4.892578	60.341797	-1.602557
6.523437	64.011230	-1.673726
1.223145	70.534668	-1.734878
2.446289	75.019531	-1.788436
4.484863	73.796387	-1.834904
10.600586	68.903809	-1.871555
9.377441	65.642090	-1.895367
6.931152	69.311523	-1.906577
6.931152	71.350098	-1.907350
12.231445	61.157227	-1.897409
12.639160	60.749512	-1.874357
21.201172	72.165527	-1.834958
20.385742	72.980957	-1.775602
21.608887	60.749512	-1.695115
24.462891	53.002930	-1.593359
24.462891	67.680664	-1.469585
22.424316	77.873535	-1.324707
15.085449	79.096680	-1.162831
15.493164	70.942383	-0.989183
18.754883	63.603516	-0.805335
12.639160	60.341797	-0.611728
13.046875	62.380371	-0.411258
18.754883	63.195801	-0.204338
20.385742	67.272949	0.012057
22.424316	69.311523	0.240160
25.686035	59.934082	0.481559
29.355469	59.934082	0.738609
27.724609	55.041504	1.012689
27.316895	63.603516	1.302738
21.201172	70.534668	1.605479
18.754883	65.642090	1.916056
28.947754	62.788086	2.233573
31.801758	60.749512	2.562844
33.024902	68.903809	2.907489
37.102051	73.388672	3.268913
35.878906	72.165527	3.648117
33.024902	75.427246	4.043576
26.501465	72.573242	4.450603
19.162598	67.272949	4.862143
18.754883	62.788086	5.271881
18.347168	64.011230	5.677220
16.308594	66.457520	6.077075
23.647461	83.173828	6.472026
27.316895	88.881836	6.866164
29.355469	82.766113	7.263502
42.402344	84.804687	7.668940
45.664062	83.989258	8.089931
43.217773	79.504395	8.529828
35.471191	66.865234	8.984848
29.763184	60.749512	9.447615
24.462891	56.672363	9.910866
22.832031	56.672363	10.369379
15.085449	46.479492	10.818605
5.300293	24.055176	11.251422
-2.446289	19.978027	11.658909
0.815430	20.385742	12.036002
-3.261719	15.493164	12.382289
-8.969727	12.231445	12.696019
-5.708008	8.154297	12.975123
-8.154297	8.562012	13.220449
-13.046875	6.931152	13.431556
-16.308594	13.046875	13.605703
-15.493164	14.270020	13.741598
-12.639160	17.531738	13.841151
-5.708008	24.870605	13.909440
-15.900879	20.793457	13.949523
-19.570313	14.677734	13.958138
-32.209473	2.854004	13.928777
-47.294922	-11.823730	13.851623
-55.856934	-20.385742	13.715429
-59.118652	-22.424316	13.513696
-63.195801	-32.209473	13.244571
-63.195801	-48.925781	12.908392
-70.942383	-53.410645	12.505444
-80.319824	-53.002930	12.032645
-85.620117	-56.264648	11.485301
-89.697266	-60.341797	10.861047
-93.774414	-54.633789	10.159418
-99.482422	-63.195801	9.379945
-102.744141	-76.650391	8.522049
-104.375000	-67.680664	7.586542
-103.151855	-59.934082	6.576532
-113.344727	-53.002930	5.493993
-124.353027	-55.041504	4.335424
-130.468750	-69.719238	3.095419
-129.653320	-91.328125	1.773081
-136.584473	-113.752441	0.370532
-134.545898	-114.567871	-1.110012
-141.069336	-105.598145	-2.665924
-143.515625	-105.190430	-4.295689
-147.592773	-106.821289	-5.998318
-154.931641	-114.975586	-7.773431
-154.523926	-112.121582	-9.620699
-157.377930	-108.859863	-11.537375
-156.970215	-117.421875	-13.519585
-160.231934	-124.353027	-15.563668
-156.154785	-116.606445	-17.665209
-161.047363	-123.129883	-19.819396
-160.231934	-142.700195	-22.022865
-145.961914	-153.300781	-24.268176
-147.185059	-146.777344	-26.543683
-161.455078	-136.584473	-28.846269
-168.793945	-137.807617	-31.182036
-171.647949	-148.000488	-33.555377
-172.055664	-152.077637	-35.965633
-166.755371	-154.931641	-38.408168
-160.639648	-154.931641	-40.874669
-158.601074	-152.893066	-43.356319
-159.008789	-148.408203	-45.847252
-160.231934	-144.331055	-48.344430
-164.309082	-157.377930	-50.846768
-164.309082	-163.085937	-53.353865
-164.309082	-159.416504	-55.863942
-159.416504	-151.262207	-58.372943
-158.601074	-160.231934	-60.875493
-153.708496	-165.532227	-63.366259
-156.970215	-164.309082	-65.841227
-160.639648	-179.394531	-68.299907
-144.331055	-177.355957	-70.738952
-148.408203	-184.287109	-73.150158
-163.085937	-200.187988	-75.533965
-168.793945	-209.157715	-77.899391
-163.493652	-201.411133	-80.250248
-157.785645	-207.526855	-82.581939
-158.601074	-219.350586	-84.888707
-160.231934	-220.166016	-87.168614
-161.455078	-209.157715	-89.421874
-157.785645	-205.080566	-91.647434
-155.747070	-216.904297	-93.842069
-141.884766	-216.088867	-95.999198
-139.846191	-207.526855	-98.109899
-149.223633	-199.780273	-100.171810
-153.300781	-201.818848	-102.190437
-159.008789	-213.642578	-104.171725
-155.747070	-214.050293	-106.118497
-156.154785	-221.796875	-108.030165
-149.631348	-227.504883	-109.903954
-153.300781	-236.882324	-111.737256
-154.931641	-229.543457	-113.530622
-144.738770	-227.912598	-115.283120
-140.661621	-229.135742	-116.988762
-137.399902	-227.504883	-118.642204
-140.661621	-232.397461	-120.242145
-142.700195	-224.243164	-121.790722
-149.631348	-214.865723	-123.292383
-145.554199	-204.265137	-124.750781
-151.669922	-234.843750	-126.167631
-155.747070	-245.444336	-127.546539
-160.639648	-238.105469	-128.892810
-161.862793	-241.774902	-130.210470
-163.493652	-248.298340	-131.501788
-164.309082	-254.821777	-132.767992
-167.978516	-256.860352	-134.010712
-171.647949	-265.422363	-135.232811
-171.240234	-254.006348	-136.436725
-169.201660	-240.551758	-137.622226
-168.386230	-232.397461	-138.787511
-176.540527	-227.912598	-139.933449
-179.394531	-223.427734	-141.064534
-176.948242	-231.174316	-142.183248
-178.579102	-245.852051	-143.288869
-181.840820	-252.375488	-144.381900
-192.033691	-248.706055	-145.466582
-198.964844	-245.852051	-146.550187
-201.411133	-246.667480	-147.638587
-207.526855	-256.860352	-148.735132
-215.681152	-259.714355	-149.844300
-215.681152	-261.752930	-150.970244
-219.350586	-264.199219	-152.114126
-217.312012	-270.722656	-153.275324
-204.672852	-266.645508	-154.448406
-207.526855	-256.452637	-155.625174
-206.711426	-251.152344	-156.802190
-200.595703	-237.697754	-157.976922
-204.672852	-240.551758	-159.145881
-204.672852	-252.783203	-160.308637
-207.934570	-258.898926	-161.466176
-209.157715	-255.229492	-162.619554
-207.934570	-252.783203	-163.768926
-210.788574	-258.898926	-164.913694
-216.088867	-265.014648	-166.055434
-216.904297	-265.014648	-167.196831
-214.865723	-260.937500	-168.337989
-216.904297	-259.714355	-169.477396
-212.011719	-254.006348	-170.613186
-205.488281	-251.967773	-171.740580
-201.818848	-251.967773	-172.853097
-196.518555	-263.791504	-173.945210
-191.625977	-275.207520	-175.011661
-183.063965	-258.898926	-176.046281
-184.287109	-245.852051	-177.043962
-185.917969	-240.144043	-178.004153
-187.141113	-242.998047	-178.929042
-181.840820	-242.998047	-179.818936
-181.025391	-237.697754	-180.671808
-182.656250	-228.320312	-181.487048
-183.471680	-223.835449	-182.266360
-184.694824	-220.166016	-183.011732
-187.956543	-227.504883	-183.725633
-189.995117	-240.551758	-184.411308
-192.849121	-240.959473	-185.071994
-192.033691	-243.813477	-185.709950
-185.917969	-245.444336	-186.324250
-183.063965	-245.444336	-186.911144
-180.617676	-244.221191	-187.467508
-185.917969	-236.474609	-187.993498
-189.179687	-236.474609	-188.492938
-192.033691	-233.620605	-188.970360
-185.102539	-229.951172	-189.426797
-179.802246	-221.796875	-189.858436
-170.017090	-218.942871	-190.258771
-168.793945	-209.157715	-190.621945
-169.609375	-209.973145	-190.946262
-169.201660	-214.050293	-191.233142
-165.939941	-212.011719	-191.483123
-166.755371	-191.218262	-191.696008
-165.124512	-189.587402	-191.872397
-167.570801	-193.664551	-192.013759
-164.716797	-183.879395	-192.121639
-162.678223	-179.394531	-192.196049
-167.570801	-187.141113	-192.237893
-170.017090	-187.548828	-192.251278
-166.755371	-179.802246	-192.239195
-163.085937	-164.309082	-192.200775
-171.647949	-145.554199	-192.136717
-178.986816	-141.884766	-192.053711
-179.802246	-164.716797	-191.959023
-171.240234	-179.394531	-191.853389
-173.278809	-175.725098	-191.733666
-172.463379	-173.686523	-191.599228
-174.501953	-181.433105	-191.451524
-167.163086	-178.579102	-191.290240
-169.609375	-184.694824	-191.113483
-174.501953	-193.256836	-190.922782
-174.501953	-181.025391	-190.722184
-171.240234	-154.523926	-190.512775
-170.832520	-136.176758	-190.293354
-164.309082	-123.945312	-190.061821
-165.939941	-124.760742	-189.815862
-170.017090	-134.545898	-189.556603
-175.317383	-133.730469	-189.288883
-172.055664	-123.945312	-189.016364
-176.132812	-120.275879	-188.740300
-174.501953	-111.713867	-188.461999
-175.317383	-111.306152	-188.182282
-177.763672	-124.353027	-187.902152
-177.763672	-128.022461	-187.623419
-176.132812	-119.052734	-187.346529
-175.317383	-111.306152	-187.070616
-175.317383	-101.928711	-186.795071
-171.240234	-90.512695	-186.518881
-169.201660	-81.135254	-186.239687
-177.355957	-75.019531	-185.957919
-174.501953	-67.272949	-185.676989
-169.609375	-60.341797	-185.396511
-167.163086	-46.887207	-185.112797
-174.501953	-36.694336	-184.825649
-176.132812	-33.840332	-184.539166
-183.879395	-27.724609	-184.258438
-181.840820	-15.493164	-183.987461
-173.278809	3.669434	-183.724795
-173.686523	0.815430	-183.465411
-167.570801	-7.746582	-183.205792
-170.017090	-11.008301	-182.943758
-175.317383	-4.077148	-182.680765
-172.463379	6.523437	-182.419810
-175.725098	31.801758	-182.161824
-181.025391	48.518066	-181.909301
-183.471680	51.372070	-181.666542
-187.141113	60.749512	-181.437001
-174.501953	77.058105	-181.219572
-173.278809	91.328125	-181.007935
-171.647949	93.366699	-180.797660
-174.909668	102.744141	-180.588584
-174.501953	119.868164	-180.382051
-170.832520	143.107910	-180.177842
-170.832520	156.970215	-179.974031
-171.240234	159.416504	-179.769956
-174.501953	148.815918	-179.566916
-174.909668	141.069336	-179.367005
-170.832520	145.146484	-179.170291
-174.501953	147.185059	-178.975765
-177.763672	172.055664	-178.785245
-168.793945	183.879395	-178.599072
-149.631348	194.479980	-178.408355
-148.408203	203.857422	-178.200756
-161.455078	213.642578	-177.975007
-164.716797	228.320312	-177.739559
-167.570801	246.667480	-177.500989
-165.939941	251.560059	-177.261617
-172.871094	245.444336	-177.023445
-174.501953	244.628906	-176.790310
-172.055664	252.783203	-176.564264
-168.793945	271.130371	-176.343509
-160.231934	281.323242	-176.123433
-157.377930	284.584961	-175.898130
-157.785645	289.069824	-175.664433
-159.008789	297.631836	-175.422754
-152.077637	323.317871	-175.172637
-152.077637	336.772461	-174.911408
-151.669922	336.364746	-174.637916
-152.893066	347.780762	-174.353112
-153.300781	359.604492	-174.058450
-160.639648	365.720215	-173.757150
-162.678223	371.835937	-173.454327
-165.124512	375.505371	-173.154010
-171.240234	375.913086	-172.859829
-167.978516	384.475098	-172.574813
-164.716797	395.891113	-172.297883
-157.377930	409.345703	-172.024464
-161.455078	417.907715	-171.751044
-171.647949	431.770020	-171.480802
-174.909668	425.654297	-171.221160
-176.540527	409.345703	-170.976732
-169.609375	410.161133	-170.746976
-170.017090	424.838867	-170.528363
-173.278809	444.816895	-170.319870
-171.240234	463.571777	-170.122541
-174.501953	470.095215	-169.936720
-180.617676	471.318359	-169.764866
-181.025391	483.142090	-169.610704
-174.501953	499.042969	-169.473700
-176.132812	508.828125	-169.350331
-176.540527	503.527832	-169.239357
-179.394531	504.343262	-169.141726
-176.948242	505.158691	-169.057900
-177.763672	507.197266	-168.987020
-176.948242	512.905273	-168.928146
-177.763672	517.797852	-168.880795
-177.355957	530.437012	-168.844602
-179.394531	549.191895	-168.819635
-176.132812	550.007324	-168.805518
-179.394531	552.453613	-168.801454
-187.956543	559.792480	-168.810098
-191.218262	561.015625	-168.837075
-191.625977	568.354492	-168.885598
-186.733398	574.062500	-168.954424
-188.771973	590.371094	-169.040633
-193.664551	602.194824	-169.144418
-192.849121	620.541992	-169.267766
-180.617676	614.018555	-169.407303
-189.179687	589.963379	-169.557759
-199.780273	584.255371	-169.722551
-199.780273	587.924805	-169.908674
-192.849121	599.748535	-170.115930
-188.771973	597.302246	-170.338431
-185.510254	588.332520	-170.570433
-191.218262	600.563965	-170.809977
-196.110840	622.172852	-171.059895
-197.741699	644.597168	-171.323955
-196.518555	642.558594	-171.603057
-196.518555	646.228027	-171.896014
-198.557129	645.820312	-172.202104
-200.187988	651.120605	-172.521909
-198.557129	660.498047	-172.855436
-197.741699	669.875488	-173.201070
-192.849121	660.498047	-173.555757
-195.295410	650.305176	-173.916572
-193.664551	656.420898	-174.282430
-195.295410	665.390625	-174.652933
-192.033691	657.644043	-175.027051
-195.295410	660.498047	-175.403800
-193.256836	671.914062	-175.782986
-189.995117	669.875488	-176.163029
-189.995117	669.875488	-176.541242
-193.256836	686.184082	-176.917310
-191.218262	694.338379	-177.292114
-179.394531	699.638672	-177.661996
-173.278809	709.423828	-178.018437
-181.025391	713.093262	-178.357388
-189.995117	707.385254	-178.684105
-194.887695	705.754395	-179.006831
-196.926270	706.569824	-179.330870
-201.003418	706.569824	-179.659249
-201.003418	700.861816	-179.994105
-201.003418	701.269531	-180.335863
-196.518555	699.638672	-180.682673
-192.849121	702.492676	-181.030621
-191.218262	710.239258	-181.375756
-191.625977	706.569824	-181.716130
-196.926270	716.354980	-182.052778
-203.857422	735.925293	-182.390228
-207.119141	747.749023	-182.733979
-201.818848	754.680176	-183.085528
-201.818848	747.341309	-183.442223
-199.780273	744.895020	-183.801528
-201.003418	729.809570	-184.162199
-197.741699	723.693848	-184.523044
-187.956543	728.586426	-184.879714
-192.849121	731.848145	-185.227310
-191.218262	728.178711	-185.565451
-189.995117	727.363281	-185.894315
-189.587402	718.393555	-186.212801
-189.179687	724.916992	-186.520401
-184.287109	739.187012	-186.815679
-183.063965	734.702148	-187.095883
-178.579102	749.379883	-187.358297
-175.725098	744.079590	-187.600023
-174.909668	740.002441	-187.818854
-176.948242	736.333008	-188.014954
-178.986816	748.972168	-188.190540
-176.540527	750.603027	-188.347321
-175.317383	754.680176	-188.484912
-176.948242	752.233887	-188.603182
-176.132812	762.426758	-188.703204
-175.317383	756.311035	-188.785485
-172.055664	764.873047	-188.849244
-169.201660	759.572754	-188.892574
-172.463379	739.594727	-188.914858
-170.832520	719.208984	-188.917560
-174.501953	737.963867	-188.902529
-173.278809	748.564453	-188.871762
-177.763672	747.749023	-188.827504
-176.132812	756.311035	-188.772020
-173.278809	758.349609	-188.705449
-173.278809	757.126465	-188.626434
-174.909668	740.817871	-188.535301
-170.832520	739.187012	-188.432481
-174.501953	740.817871	-188.317863
-178.579102	744.079590	-188.194028
-169.609375	746.118164	-188.062274
-167.978516	744.079590	-187.919029
-171.240234	745.302734	-187.762607
-177.355957	737.556152	-187.596663
-184.287109	731.848145	-187.427691
-180.209961	727.770996	-187.260185
-176.540527	733.479004	-187.092968
-176.132812	741.633301	-186.923097
-173.278809	739.187012	-186.748943
-176.948242	742.448730	-186.570241
-166.755371	732.663574	-186.385884
-165.939941	733.479004	-186.191718
-166.755371	749.787598	-185.985499
-161.862793	769.765625	-185.766919
-163.493652	774.250488	-185.534840
-164.309082	762.426758	-185.289903
-166.755371	746.118164	-185.034448
-172.055664	723.286133	-184.772112
-168.386230	716.354980	-184.505945
-169.609375	710.239258	-184.236186
-169.609375	707.792969	-183.962961
-171.240234	709.831543	-183.687463
-168.386230	713.500977	-183.410191
-163.493652	722.470703	-183.129162
-164.716797	719.616699	-182.841842
-165.124512	719.208984	-182.548283
-167.978516	715.947266	-182.250360
-163.901367	713.908691	-181.949120
-158.601074	717.985840	-181.642245
-151.669922	725.324707	-181.324637
-156.970215	726.140137	-180.993475
-155.747070	731.440430	-180.650362
-161.047363	728.586426	-180.298344
-156.562500	724.101562	-179.939478
-150.854492	717.985840	-179.571990
-152.077637	705.754395	-179.192799
-154.931641	702.492676	-178.802728
-152.893066	697.600098	-178.403965
-151.669922	691.892090	-177.996679
-149.631348	697.192383	-177.579973
-147.185059	702.492676	-177.152674
-147.592773	716.762695	-176.713999
-149.631348	718.393555	-176.265032
-156.562500	708.608398	-175.809708
-152.893066	695.969238	-175.352009
-149.631348	693.115234	-174.891558
-145.554199	695.153809	-174.425215
-146.777344	699.638672	-173.951060
-139.846191	695.561523	-173.467695
-136.584473	690.261230	-172.971870
-131.284180	685.368652	-172.459743
-130.876465	687.407227	-171.928842
-133.730469	675.175781	-171.379719
-147.592773	675.175781	-170.818811
-152.077637	671.098633	-170.256451
-152.485352	671.914062	-169.699402
-143.923340	666.613770	-169.147151
-136.584473	682.514648	-168.593741
-132.507324	682.514648	-168.032632
-133.322754	669.060059	-167.460905
-140.253906	663.352051	-166.880822
-135.769043	676.398926	-166.296047
-130.876465	681.291504	-165.705586
-128.430176	681.291504	-165.105928
-124.353027	682.106934	-164.494477
-121.091309	667.429199	-163.868768
-123.129883	665.390625	-163.227857
-121.091309	660.498047	-162.572784
-117.421875	648.674316	-161.903379
-110.898438	636.850586	-161.216818
-116.198730	641.743164	-160.511602
-121.499023	650.305176	-159.791781
-123.945312	654.382324	-159.063591
-125.168457	645.004883	-158.331176
-129.245605	653.974609	-157.597853
-124.353027	651.528320	-156.865613
-121.906738	640.520020	-156.133033
-117.829590	637.666016	-155.397258
-121.091309	642.558594	-154.657277
-123.129883	653.974609	-153.915236
-114.567871	644.189453	-153.171687
-114.567871	632.773437	-152.423518
-110.490723	619.726562	-151.668402
-113.344727	618.503418	-150.906058
-111.713867	619.318848	-150.137612
-121.906738	596.486816	-149.366719
-120.275879	606.271973	-148.598799
-111.306152	616.872559	-147.833988
-112.937012	628.288574	-147.068236
-112.529297	613.610840	-146.300785
-102.744141	612.387695	-145.530161
-100.705566	621.357422	-144.751534
-103.967285	626.250000	-143.963300
-112.529297	620.949707	-143.170151
-111.306152	606.271973	-142.378176
-109.267578	607.087402	-141.589225
-107.636719	601.379395	-140.802170
-105.190430	583.847656	-140.015716
-102.744141	568.354492	-139.228306
-98.666992	568.762207	-138.437813
-95.405273	569.985352	-137.641565
-97.443848	561.015625	-136.838410
-98.666992	568.354492	-136.030041
-95.812988	572.023926	-135.217972
-91.328125	581.401367	-134.400868
-97.443848	578.139648	-133.578315
-96.220703	572.839355	-132.753140
-95.812988	574.062500	-131.927183
-97.443848	581.809082	-131.101243
-92.551270	580.178223	-130.275649
-92.143555	571.616211	-129.449006
-89.697266	565.092773	-128.620086
-87.658691	569.985352	-127.787937
-89.697266	572.431641	-126.952401
-88.066406	571.208496	-126.114616
-92.551270	555.307617	-125.276422
-90.920410	541.445312	-124.440217
-85.620117	528.398437	-123.605718
-77.873535	533.291016	-122.768478
-79.912109	531.660156	-121.924573
-84.804687	530.437012	-121.075514
-86.843262	539.406738	-120.226067
-79.912109	543.483887	-119.377679
-72.980957	536.145020	-118.526266
-62.788086	537.368164	-117.664720
-65.234375	545.522461	-116.787872
-68.903809	537.368164	-115.896909
-72.573242	525.136719	-114.996940
-77.873535	520.651855	-114.093604
-83.989258	516.982422	-113.193358
-79.096680	511.274414	-112.300327
-75.019531	501.489258	-111.413088
-68.903809	499.450684	-110.527277
-68.496094	496.188965	-109.639369
-70.942383	496.596680	-108.749214
-77.873535	504.343262	-107.860847
-85.620117	507.197266	-106.981441
-79.912109	513.720703	-106.115904
-75.834961	503.527832	-105.262483
-65.234375	495.781250	-104.415098
-58.303223	494.965820	-103.565907
-59.118652	497.819824	-102.709670
-59.118652	495.781250	-101.846216
-66.457520	487.219238	-100.978919
-67.272949	480.288086	-100.112936
-64.826660	482.326660	-99.250830
-60.749512	488.442383	-98.391190
-53.818359	488.034668	-97.530202
-48.518066	484.365234	-96.662726
-45.664062	480.288086	-95.784613
-42.810059	476.210937	-94.893627
-43.625488	472.541504	-93.989251
-44.033203	465.202637	-93.072830
-39.548340	459.902344	-92.145121
-38.732910	461.533203	-91.205147
-40.363770	463.979492	-90.253275
-42.402344	471.726074	-89.292221
-44.440918	477.841797	-88.325447
-42.810059	479.880371	-87.355405
-43.625488	481.918945	-86.383155
-45.256348	481.918945	-85.410249
-50.556641	455.009766	-84.440201
-52.595215	442.778320	-83.477649
-45.256348	435.031738	-82.523801
-35.471191	426.062012	-81.573373
-35.063477	426.062012	-80.620035
-33.432617	431.770020	-79.661706
-33.840332	426.877441	-78.698763
-31.801758	427.285156	-77.731676
-28.540039	448.078613	-76.759830
-28.947754	452.971191	-75.782318
-33.024902	450.117187	-74.800854
-34.655762	443.186035	-73.819324
-34.655762	445.224609	-72.840692
-28.540039	446.040039	-71.864676
-32.617187	440.739746	-70.890041
-33.432617	436.662598	-69.918498
-39.140625	427.285156	-68.953927
-35.471191	423.615723	-67.999275
-28.540039	428.508301	-67.052846
-27.316895	422.800293	-66.110335
-29.355469	413.830566	-65.170627
-15.900879	410.976562	-64.231798
-19.162598	406.899414	-63.289119
-23.239746	414.238281	-62.343004
-21.608887	401.599121	-61.397173
-24.462891	387.329102	-60.453573
-19.978027	403.229980	-59.512985
-23.239746	413.422852	-58.575512
-15.900879	402.006836	-57.640606
-23.647461	400.375977	-56.708169
-24.055176	397.114258	-55.781317
-22.832031	399.560547	-54.862700
-19.978027	399.968262	-53.951625
-14.270020	398.745117	-53.045386
-13.454590	381.213379	-52.140754
-15.900879	364.904785	-51.237321
-14.677734	356.342773	-50.336733
-7.338867	356.342773	-49.437878
-3.261719	346.149902	-48.536375
2.854004	359.196777	-47.627615
4.077148	373.874512	-46.708275
2.854004	375.913086	-45.777874
9.377441	374.689941	-44.836498
12.639160	390.183105	-43.881670
15.085449	395.483398	-42.910934
16.308594	386.105957	-41.923568
14.270020	375.505371	-40.920612
16.308594	380.397949	-39.904040
14.677734	369.797363	-38.875432
18.754883	365.720215	-37.835663
21.201172	362.050781	-36.783976
26.909180	359.604492	-35.718160
30.578613	351.450195	-34.635370
27.316895	338.811035	-33.534942
36.286621	318.017578	-32.417225
51.372070	307.824707	-31.276359
55.041504	320.871582	-30.103346
53.818359	327.395020	-28.895305
41.586914	321.279297	-27.657985
38.325195	325.764160	-26.401618
41.179199	326.171875	-25.132563
50.964355	312.309570	-23.849515
53.002930	293.146973	-22.548031
57.080078	299.262695	-21.225602
52.595215	314.755859	-19.883066
58.710937	323.317871	-18.522423
64.826660	308.640137	-17.142284
75.019531	291.923828	-15.737484
81.542969	281.323242	-14.301941
82.766113	286.623535	-12.832131
90.512695	299.670410	-11.326760
88.474121	298.854980	-9.785166
90.512695	297.224121	-8.209109
85.212402	286.623535	-6.602665
94.997559	268.276367	-4.968578
100.297852	260.122070	-3.304676
112.121582	250.744629	-1.605597
113.752441	238.920898	0.133312
112.937012	234.028320	1.912168
117.421875	223.835449	3.728468
121.499023	212.827148	5.581822
125.576172	203.857422	7.472994
122.722168	191.625977	9.400746
128.430176	174.501953	11.362467
134.545898	164.309082	13.358411
138.623047	157.785645	15.390713
142.700195	145.146484	17.460411
152.893066	143.923340	19.569526
165.124512	142.700195	21.723695
165.939941	137.399902	23.927930
164.309082	126.391602	26.180859
161.455078	112.121582	28.476518
161.862793	103.559570	30.808735
166.755371	90.920410	33.174155
159.416504	81.135254	35.569537
152.077637	66.865234	37.986507
148.815918	44.440918	40.414908
165.939941	29.355469	42.852526
176.948242	21.201172	45.307415
186.733398	5.300293	47.789064
190.810547	4.484863	50.302757
197.741699	4.484863	52.850934
211.196289	-5.300293	55.437601
220.166016	-17.531738	58.069542
226.689453	-24.870605	60.751901
227.912598	-26.501465	63.485679
229.135742	-38.325195	66.268352
229.951172	-48.518066	69.095957
229.543457	-62.380371	71.964131
229.951172	-77.465820	74.868128
236.882324	-87.658691	77.805201
238.920898	-106.821289	80.775050
241.774902	-123.129883	83.776711
245.444336	-132.915039	86.808586
253.598633	-149.223633	89.870941
268.276367	-157.785645	92.968279
287.031250	-175.725098	96.110542
307.009277	-174.501953	99.311349
314.755859	-175.725098	102.582142
308.640137	-183.471680	105.924023
291.923828	-198.964844	109.324691
282.138672	-208.342285	112.764950
291.923828	-221.796875	116.232427
307.009277	-235.659180	119.728781
310.678711	-247.075195	123.260489
310.678711	-260.937500	126.828128
313.532715	-271.130371	130.428035
315.571289	-273.984375	134.057000
323.725586	-279.284668	137.713856
331.879883	-287.031250	141.400459
336.364746	-292.331543	145.119191
346.965332	-311.086426	148.871971
349.819336	-328.618164	152.660811
352.265625	-339.218750	156.485021
356.750488	-343.295898	160.342196
364.497070	-359.604492	164.231820
369.389648	-357.973633	168.154870
373.466797	-366.943359	172.111386
369.389648	-376.320801	176.098050
368.574219	-377.543945	180.108022
373.466797	-373.874512	184.135817
371.835937	-381.213379	188.178325
372.651367	-397.114258	192.231272
369.389648	-417.500000	196.289071
367.758789	-432.993164	200.345310
373.059082	-432.177734	204.395477
385.698242	-443.186035	208.441266
390.183105	-454.194336	212.487837
388.144531	-476.618652	216.536043
381.213379	-475.395508	220.579842
385.290527	-476.210937	224.612079
378.767090	-480.695801	228.627649
376.728516	-493.334961	232.620196
371.835937	-506.381836	236.582498
369.797363	-508.828125	240.508120
374.689941	-501.896973	244.393530
385.290527	-504.750977	248.241286
376.320801	-524.729004	252.053549
380.397949	-539.814453	255.827066
379.174805	-568.762207	259.559091
384.475098	-574.062500	263.249404
390.183105	-587.924805	266.899981
387.329102	-592.001953	270.512427
385.290527	-599.748535	274.084139
385.290527	-608.718262	277.611389
390.998535	-609.941406	281.093449
390.183105	-606.271973	284.531494
394.260254	-608.718262	287.926047
393.037109	-604.233398	291.277119
393.037109	-611.572266	294.583586
392.221680	-621.765137	297.843461
386.105957	-635.627441	301.053395
380.805664	-639.296875	304.207458
381.213379	-651.528320	307.300584
375.505371	-653.159180	310.329606
368.574219	-651.936035	313.289533
371.020508	-656.013184	316.175889
369.389648	-659.682617	318.988011
367.758789	-680.883789	321.725664
367.351074	-698.415527	324.387954
365.312500	-715.131836	326.974321
363.681641	-720.024414	329.483881
346.965332	-725.324707	331.911694
345.742187	-718.393555	334.249381
345.742187	-706.162109	336.493536
347.373047	-709.831543	338.646147
342.888184	-715.131836	340.708777
340.849609	-722.470703	342.680875
337.180176	-730.625000	344.561256
331.472168	-733.886719	346.348140
337.995605	-727.770996	348.041634
331.472168	-722.470703	349.644407
328.210449	-734.702148	351.156315
324.133301	-730.217285	352.575387
324.948730	-733.886719	353.901556
328.210449	-725.324707	355.137851
328.618164	-742.041016	356.289081
324.948730	-745.710449	357.357998
320.871582	-760.795898	358.344317
319.240723	-784.035645	359.247211
315.979004	-782.404785	360.066725
316.386719	-783.220215	360.803743
315.163574	-768.542480	361.460263
313.125000	-764.465332	362.038174
315.571289	-759.980469	362.539680
309.047852	-771.396484	362.966752
301.708984	-755.903320	363.317603
294.777832	-764.057617	363.587926
292.739258	-774.658203	363.774983
296.000977	-786.074219	363.880315
296.000977	-795.451660	363.908693
296.000977	-790.559082	363.864430
295.593262	-801.159668	363.750759
298.854980	-786.481934	363.571585
299.262695	-784.443359	363.331780
301.708984	-773.027344	363.036056
303.747559	-760.388184	362.689185
297.631836	-765.688477	362.293957
296.408691	-775.473633	361.849980
293.554688	-765.688477	361.356930
288.662109	-755.495605	360.814443
280.915527	-770.581055	360.219975
280.100098	-778.327637	359.570935
281.730957	-772.211914	358.868444
287.031250	-777.104492	358.117697
292.739258	-777.512207	357.326381
289.885254	-788.520508	356.500810
285.808105	-780.366211	355.642330
291.108398	-776.696777	354.751836
292.739258	-767.727051	353.833856
295.593262	-773.842773	352.893599
293.962402	-767.727051	351.934562
301.301270	-761.203613	350.960425
298.854980	-744.895020	349.975679
298.854980	-726.140137	348.982483
300.078125	-709.016113	347.981943
297.224121	-703.715820	346.975335
296.408691	-719.208984	345.962599
295.593262	-733.886719	344.943685
287.031250	-747.749023	343.917052
282.954102	-734.702148	342.878345
289.885254	-728.994141	341.826631
284.584961	-711.870117	340.764785
281.323242	-700.046387	339.692559
280.507812	-703.308105	338.608230
287.031250	-707.385254	337.513915
291.108398	-709.423828	336.415500
294.777832	-702.492676	335.319145
293.146973	-683.330078	334.228479
296.816406	-672.321777	333.145460
293.146973	-670.283203	332.071417
289.069824	-672.321777	331.005036
285.808105	-662.128906	329.943127
283.361816	-663.759766	328.883176
287.846680	-658.459473	327.825245
289.069824	-656.013184	326.772388
285.400391	-656.013184	325.726338
287.438965	-638.073730	324.686817
291.516113	-647.451172	323.655796
296.000977	-654.382324	322.637832
298.039551	-653.159180	321.637364
303.339844	-645.004883	320.658293
304.970703	-648.266602	319.704425
302.932129	-658.459473	318.777336
306.601562	-640.927734	317.877106
309.455566	-622.172852	317.005607
311.086426	-622.580566	316.165345
309.455566	-616.057129	315.356965
