68.903809	10.600586	55.587698
68.903809	19.570313	55.705147
68.903809	18.347168	55.831141
67.680664	25.686035	55.964842
61.157227	27.724609	56.103402
59.118652	23.647461	56.242171
49.741211	25.686035	56.375747
43.217773	18.754883	56.497049
37.102051	19.978027	56.599008
38.325195	21.608887	56.677788
44.848633	17.124023	56.735107
52.187500	7.746582	56.777553
55.856934	6.931152	56.812288
56.672363	16.308594	56.843696
48.518066	15.085449	56.871144
47.702637	13.046875	56.890500
51.779785	15.085449	56.900609
59.118652	12.231445	56.905737
59.934082	17.124023	56.911243
53.002930	22.424316	56.917642
48.925781	27.724609	56.920386
49.333496	17.124023	56.915785
50.964355	17.124023	56.903746
53.818359	11.416016	56.886332
54.633789	8.562012	56.865949
55.041504	4.484863	56.844037
61.564941	0.000000	56.822830
67.680664	4.484863	56.807460
71.757812	3.261719	56.803676
79.504395	14.677734	56.816741
75.427246	17.124023	56.849946
64.826660	16.308594	56.899454
57.080078	16.716309	56.955797
53.002930	19.162598	57.010682
48.925781	19.978027	57.058869
47.702637	27.724609	57.097076
45.664062	30.986328	57.123466
44.033203	24.055176	57.136726
44.033203	27.724609	57.136045
44.440918	21.201172	57.121735
47.702637	17.124023	57.095498
48.925781	14.270020	57.060045
53.002930	11.823730	57.018401
55.449219	5.300293	56.973997
55.041504	-0.407715	56.929252
62.788086	3.669434	56.886694
63.603516	4.892578	56.850445
72.980957	6.931152	56.825183
71.757812	8.969727	56.815256
67.680664	8.562012	56.820731
62.788086	12.231445	56.837155
62.788086	16.716309	56.860372
67.272949	21.201172	56.889945
67.680664	21.201172	56.928016
61.564941	30.986328	56.973946
57.487793	25.686035	57.023155
60.749512	23.239746	57.072551
59.526367	17.124023	57.122393
55.449219	8.154297	57.171753
57.487793	-4.077148	57.218673
56.264648	-7.338867	57.262893
53.818359	-1.630859	57.303738
46.887207	2.854004	57.337893
47.294922	6.523437	57.361447
48.110352	11.823730	57.373463
45.664062	9.785156	57.374344
48.925781	16.308594	57.364380
50.964355	23.647461	57.345680
53.818359	26.909180	57.321336
56.264648	17.124023	57.294307
59.526367	16.308594	57.267635
55.856934	11.008301	57.242725
55.856934	6.931152	57.218451
55.041504	7.338867	57.193632
53.410645	7.338867	57.167462
52.187500	0.815430	57.138638
55.041504	-2.854004	57.106989
48.925781	0.000000	57.072247
46.479492	0.407715	57.031483
45.664062	8.154297	56.981907
45.664062	14.270020	56.922900
44.033203	17.531738	56.854308
47.702637	17.531738	56.776745
45.664062	19.162598	56.691662
45.664062	19.162598	56.599383
45.256348	11.823730	56.499688
54.633789	15.493164	56.395267
56.264648	11.416016	56.291692
53.818359	9.377441	56.191711
55.449219	9.377441	56.094837
53.002930	9.377441	56.000604
54.633789	3.669434	55.908562
53.002930	-1.223145	55.818495
53.002930	-8.154297	55.729979
48.518066	-11.416016	55.641430
55.041504	-15.085449	55.552301
60.749512	-3.669434	55.466459
61.564941	8.969727	55.388773
60.341797	13.046875	55.320562
62.380371	19.570313	55.261575
63.603516	22.424316	55.212526
59.118652	13.454590	55.173017
49.333496	23.239746	55.138052
45.664062	19.978027	55.100179
41.179199	11.416016	55.053893
49.741211	0.000000	54.998553
56.672363	-6.931152	54.939767
61.564941	-2.446289	54.884931
59.934082	-0.407715	54.837885
49.741211	8.969727	54.796076
43.217773	4.077148	54.751814
41.179199	12.231445	54.698617
41.179199	13.046875	54.634160
44.033203	19.162598	54.559236
51.372070	16.716309	54.477825
56.672363	21.201172	54.396304
54.633789	20.793457	54.318941
48.925781	18.754883	54.244450
53.818359	19.162598	54.170531
58.303223	15.493164	54.099484
59.118652	5.708008	54.035110
61.564941	2.854004	53.979423
62.788086	3.261719	53.933908
59.118652	-4.484863	53.898474
59.934082	-8.562012	53.871309
56.264648	-4.484863	53.850567
51.372070	-5.708008	53.832981
56.672363	-0.815430	53.816283
56.672363	10.600586	53.801951
53.818359	17.531738	53.790534
50.556641	19.570313	53.779557
50.964355	14.677734	53.766655
53.410645	17.531738	53.751928
49.741211	15.493164	53.735903
55.856934	22.424316	53.718978
52.187500	24.055176	53.702496
48.925781	19.162598	53.685275
45.664062	14.677734	53.663834
48.518066	9.785156	53.636566
44.848633	6.523437	53.603441
53.002930	3.669434	53.565724
59.526367	7.746582	53.528696
64.011230	6.931152	53.499112
69.311523	9.377441	53.482129
62.788086	9.785156	53.479443
60.749512	11.416016	53.487837
53.410645	16.716309	53.502089
55.449219	22.832031	53.518062
59.118652	24.055176	53.535769
60.749512	17.531738	53.558005
61.564941	15.085449	53.586575
57.487793	9.377441	53.620949
44.033203	8.154297	53.655365
38.325195	3.669434	53.680145
39.140625	6.931152	53.689382
40.363770	7.338867	53.683021
47.294922	5.300293	53.664452
53.002930	4.077148	53.639710
49.741211	6.931152	53.613064
50.556641	10.600586	53.584628
53.818359	21.201172	53.554942
55.041504	28.540039	53.526342
56.672363	23.239746	53.500737
61.157227	20.793457	53.480375
63.603516	19.978027	53.468467
59.118652	15.085449	53.465926
63.195801	21.608887	53.471690
65.642090	29.763184	53.486982
56.672363	31.394043	53.511354
50.964355	35.878906	53.538800
48.925781	35.878906	53.563261
39.140625	29.763184	53.579705
47.294922	21.201172	53.584946
55.856934	28.947754	53.583446
62.380371	32.209473	53.583868
62.380371	41.179199	53.591800
68.088379	38.732910	53.610107
73.796387	35.471191	53.642797
77.873535	27.724609	53.694754
87.658691	11.416016	53.771262
92.551270	1.630859	53.878625
87.250977	-13.454590	54.019081
81.135254	-16.716309	54.187877
72.165527	-27.316895	54.376589
55.449219	-33.840332	54.573407
36.286621	-35.878906	54.761584
33.432617	-33.024902	54.926106
35.471191	-48.925781	55.061873
40.363770	-51.779785	55.171653
45.664062	-44.848633	55.261006
48.518066	-46.887207	55.335583
55.856934	-40.771484	55.400795
57.487793	-32.209473	55.462033
53.002930	-31.394043	55.521017
43.625488	-28.947754	55.573398
32.617187	-26.501465	55.610422
40.363770	-30.986328	55.626536
40.363770	-41.586914	55.623846
60.341797	-50.556641	55.610492
77.873535	-69.719238	55.602072
73.796387	-80.319824	55.611759
59.118652	-80.319824	55.637329
51.779785	-70.534668	55.667327
45.256348	-73.388672	55.692095
28.947754	-80.727539	55.702205
29.763184	-83.173828	55.688243
41.586914	-85.620117	55.650564
57.487793	-89.697266	55.600886
61.564941	-88.474121	55.552336
49.333496	-87.250977	55.508020
44.848633	-95.405273	55.461258
39.548340	-99.074707	55.405251
38.732910	-90.920410	55.336297
39.548340	-97.036133	55.253451
41.586914	-83.173828	55.158178
39.956055	-77.873535	55.051998
43.625488	-73.388672	54.936159
50.964355	-75.019531	54.814649
55.856934	-68.088379	54.693957
55.856934	-72.980957	54.578670
51.372070	-69.719238	54.468772
55.449219	-62.380371	54.362850
57.487793	-66.865234	54.262333
53.818359	-71.350098	54.168261
45.664062	-79.912109	54.076906
42.402344	-84.804687	53.982136
43.625488	-79.504395	53.880671
44.440918	-80.319824	53.772921
50.556641	-69.719238	53.661640
50.964355	-66.865234	53.550640
29.355469	30.578613	53.436169
26.909180	29.763184	53.306615
23.647461	23.239746	53.154981
24.870605	27.724609	52.980391
23.647461	31.801758	52.783533
26.501465	28.947754	52.566052
20.793457	18.754883	52.328789
20.385742	10.600586	52.070533
21.201172	4.077148	51.791009
21.201172	-2.446289	51.491795
27.316895	4.077148	51.175917
27.724609	5.708008	50.847784
31.394043	6.931152	50.511080
35.471191	15.085449	50.169653
34.655762	18.754883	49.826967
31.394043	21.201172	49.483226
30.986328	17.124023	49.136804
35.878906	25.686035	48.788400
35.471191	25.686035	48.440827
27.316895	23.239746	48.093341
26.909180	25.686035	47.741804
25.686035	12.231445	47.384093
25.278320	9.377441	47.020007
23.647461	7.746582	46.649251
25.278320	12.639160	46.271984
24.870605	14.677734	45.889218
27.316895	23.239746	45.502460
19.978027	19.162598	45.111549
15.085449	13.454590	44.712585
13.454590	13.454590	44.301425
16.308594	17.124023	43.877663
21.608887	23.647461	43.444777
20.793457	24.055176	43.006956
21.608887	22.424316	42.566062
21.608887	17.124023	42.122912
17.531738	19.978027	41.677216
13.454590	16.308594	41.226345
14.270020	9.377441	40.768009
24.462891	8.969727	40.305063
30.578613	19.570313	39.845377
33.024902	22.424316	39.395820
25.686035	9.377441	38.957370
26.501465	13.046875	38.526984
24.055176	13.046875	38.102609
21.608887	11.416016	37.682703
25.278320	11.008301	37.266541
25.686035	11.416016	36.855784
25.278320	17.124023	36.451689
24.055176	27.316895	36.053950
30.578613	30.986328	35.663662
29.355469	25.686035	35.283681
31.394043	18.754883	34.915546
27.316895	17.124023	34.558786
24.870605	12.231445	34.211011
27.724609	11.416016	33.870573
25.686035	14.677734	33.537819
31.394043	12.639160	33.213927
25.278320	3.669434	32.899694
27.316895	5.708008	32.593834
27.724609	3.669434	32.295860
28.947754	5.300293	32.006800
32.209473	15.493164	31.728159
28.132324	19.978027	31.460723
24.462891	24.055176	31.202015
22.424316	33.432617	30.948377
24.055176	33.432617	30.698240
18.347168	28.132324	30.450529
17.124023	24.870605	30.202503
20.385742	27.724609	29.953153
28.540039	24.055176	29.706333
28.132324	31.801758	29.467224
31.801758	29.763184	29.238617
29.763184	22.832031	29.021564
34.248047	9.785156	28.816838
33.432617	15.085449	28.625705
35.063477	11.416016	28.448926
26.501465	16.308594	28.284430
26.501465	25.686035	28.127763
23.647461	25.278320	27.975737
30.578613	32.617187	27.828623
32.209473	32.209473	27.689672
32.209473	38.325195	27.561339
36.286621	42.402344	27.444775
35.471191	45.664062	27.341499
38.325195	43.625488	27.252409
33.024902	31.801758	27.176849
36.694336	27.724609	27.113214
29.763184	22.832031	27.059745
32.209473	19.162598	27.014003
34.248047	16.308594	26.975686
34.655762	18.754883	26.946318
34.655762	22.424316	26.926274
37.509766	18.347168	26.916011
39.548340	24.870605	26.917129
32.617187	28.132324	26.929113
31.394043	37.509766	26.948030
31.394043	46.479492	26.971083
34.248047	51.372070	26.998488
30.578613	35.471191	27.030556
30.578613	30.578613	27.065862
27.724609	21.608887	27.102510
26.501465	23.239746	27.138579
27.724609	24.462891	27.172987
26.501465	22.832031	27.205773
30.986328	19.162598	27.237833
27.724609	15.493164	27.270343
32.209473	15.493164	27.303893
24.870605	14.270020	27.337971
19.162598	19.162598	27.368341
17.531738	25.686035	27.389783
24.055176	29.763184	27.402037
23.647461	23.239746	27.408399
27.316895	31.801758	27.411591
29.355469	37.102051	27.414111
28.132324	28.540039	27.417700
27.316895	26.501465	27.421984
31.394043	28.947754	27.427249
31.801758	19.978027	27.435480
29.763184	15.493164	27.447283
22.424316	20.793457	27.459592
20.385742	24.055176	27.467444
21.608887	23.239746	27.468357
24.462891	18.347168	27.463500
23.647461	19.162598	27.454746
23.647461	16.716309	27.442603
24.462891	25.686035	27.427236
22.424316	29.355469	27.408701
21.201172	31.394043	27.385983
20.385742	25.686035	27.357902
21.608887	20.385742	27.324304
27.316895	16.716309	27.287400
24.462891	22.424316	27.249951
20.385742	28.132324	27.210949
11.008301	25.686035	27.165150
12.231445	24.870605	27.107234
12.639160	16.308594	27.036098
11.416016	14.677734	26.952629
15.493164	19.570313	26.858010
17.531738	30.578613	26.755201
21.201172	24.870605	26.647787
23.239746	24.055176	26.539090
24.870605	24.870605	26.431744
24.870605	21.201172	26.327193
27.316895	29.355469	26.226492
24.462891	33.024902	26.130108
21.201172	35.063477	26.036232
19.570313	24.055176	25.941958
26.909180	24.462891	25.847618
29.355469	24.055176	25.757382
27.316895	17.124023	25.673838
28.132324	18.347168	25.596556
26.909180	21.201172	25.524904
26.909180	18.347168	25.458276
26.501465	15.493164	25.396084
23.647461	19.162598	25.337229
19.570313	18.347168	25.278944
26.909180	22.424316	25.220300
26.909180	19.978027	25.164161
28.132324	17.531738	25.112721
23.647461	27.724609	25.065285
27.724609	39.548340	25.020757
29.763184	47.294922	24.980554
37.102051	41.179199	24.948589
39.956055	40.363770	24.929665
38.732910	41.179199	24.926317
33.024902	33.432617	24.936450
34.248047	27.724609	24.956443
30.578613	24.462891	24.984008
28.947754	19.978027	25.016738
30.578613	15.493164	25.052973
34.655762	20.385742	25.094014
36.286621	19.162598	25.142600
34.655762	15.493164	25.199837
35.063477	19.978027	25.264951
38.325195	24.055176	25.338161
40.363770	26.909180	25.421378
44.033203	31.801758	25.516954
48.110352	40.363770	25.627761
51.779785	38.732910	25.757065
48.110352	44.440918	25.905924
42.810059	37.509766	26.070941
33.024902	28.947754	26.244891
29.355469	23.647461	26.419690
26.501465	16.308594	26.589866
33.024902	18.754883	26.754702
32.617187	15.493164	26.916836
36.694336	19.162598	27.078791
36.286621	19.978027	27.242333
36.286621	22.424316	27.408074
35.471191	24.870605	27.575420
35.471191	31.801758	27.743694
41.179199	36.694336	27.913961
44.848633	44.033203	28.089917
44.848633	50.556641	28.274544
45.664062	44.440918	28.468434
42.402344	36.694336	28.670536
38.732910	31.801758	28.877802
33.024902	24.055176	29.085495
28.132324	27.316895	29.288131
32.617187	31.801758	29.482833
26.909180	32.209473	29.669329
28.540039	23.647461	29.846401
26.909180	27.724609	30.013220
29.355469	23.239746	30.170289
33.432617	24.870605	30.319813
32.209473	40.771484	30.464440
26.501465	41.586914	30.603169
30.578613	38.732910	30.733872
31.394043	35.063477	30.857633
32.617187	41.179199	30.976456
27.316895	35.878906	31.089905
28.132324	33.024902	31.195855
23.647461	31.394043	31.292393
28.132324	24.870605	31.378880
20.793457	23.647461	31.454931
17.531738	16.308594	31.517404
14.270020	19.162598	31.562350
18.754883	15.900879	31.589125
18.754883	19.162598	31.600022
21.201172	24.055176	31.597572
15.900879	34.655762	31.582273
20.385742	40.363770	31.553761
15.900879	39.548340	31.512450
22.424316	42.810059	31.459499
21.201172	31.394043	31.397418
20.385742	32.209473	31.327544
20.793457	34.655762	31.249660
19.162598	37.509766	31.163783
15.900879	44.440918	31.068759
15.493164	36.694336	30.962852
18.754883	36.694336	30.846454
9.377441	26.909180	30.719305
12.231445	15.900879	30.578706
16.716309	9.377441	30.425627
24.055176	19.570313	30.265830
23.647461	25.686035	30.104713
23.239746	29.763184	29.944111
26.909180	37.509766	29.784814
27.316895	35.471191	29.628857
24.870605	31.394043	29.476787
21.201172	35.063477	29.326447
21.608887	44.440918	29.175453
19.570313	45.256348	29.022708
21.201172	48.925781	28.867916
24.462891	43.625488	28.712511
29.355469	28.132324	28.560111
25.278320	20.385742	28.413096
27.316895	12.231445	28.271056
27.724609	15.493164	28.134021
31.394043	11.008301	28.003623
26.501465	19.570313	27.880446
25.278320	19.570313	27.762366
25.278320	26.501465	27.647348
28.540039	24.870605	27.535910
33.432617	25.278320	27.431004
36.694336	26.909180	27.336730
38.325195	31.801758	27.256132
38.325195	34.248047	27.190389
39.140625	38.732910	27.139539
36.286621	41.586914	27.102640
40.363770	49.333496	27.078883
34.655762	36.694336	27.067591
34.248047	24.462891	27.066177
27.316895	18.347168	27.070660
27.316895	19.162598	27.077019
32.209473	12.231445	27.084627
40.363770	19.570313	27.098132
39.140625	17.124023	27.122501
36.694336	15.900879	27.158072
39.140625	20.385742	27.203337
37.102051	25.686035	27.257916
36.286621	34.655762	27.320686
38.325195	44.848633	27.390783
39.956055	50.556641	27.469086
36.286621	41.179199	27.555569
44.848633	39.956055	27.650521
44.848633	34.655762	27.756992
45.664062	25.278320	27.876811
46.887207	17.531738	28.009998
43.217773	15.493164	28.155700
38.325195	14.677734	28.310305
40.363770	14.677734	28.470248
38.732910	24.055176	28.634476
33.432617	21.201172	28.800910
30.578613	27.724609	28.965312
35.878906	36.694336	29.126101
39.548340	38.732910	29.286271
39.956055	40.363770	29.449109
42.402344	40.771484	29.616145
44.848633	39.548340	29.789046
40.363770	32.617187	29.968116
44.848633	31.801758	30.152351
42.810059	24.870605	30.341966
39.956055	23.239746	30.535875
39.140625	19.978027	30.731432
35.063477	12.231445	30.926106
30.986328	10.600586	31.116307
34.248047	11.416016	31.299680
32.209473	19.162598	31.476449
31.394043	22.424316	31.646299
32.209473	27.724609	31.808617
35.878906	31.801758	31.964750
35.063477	34.248047	32.116743
33.024902	35.878906	32.264623
31.394043	37.102051	32.406709
32.209473	38.325195	32.541934
29.355469	30.986328	32.669719
30.578613	25.686035	32.789302
25.686035	34.655762	32.899536
32.209473	30.986328	33.000195
28.947754	24.870605	33.092891
28.132324	18.347168	33.177674
25.278320	8.969727	33.252778
22.832031	4.484863	33.316207
24.462891	6.931152	33.366816
23.239746	5.300293	33.405027
22.424316	5.300293	33.430932
21.201172	11.823730	33.443990
15.493164	24.055176	33.442415
18.754883	32.617187	33.424407
22.424316	29.763184	33.391908
21.608887	32.617187	33.348180
22.424316	34.655762	33.294526
21.201172	39.140625	33.231346
24.055176	32.617187	33.159459
22.424316	27.316895	33.080085
19.570313	16.716309	32.992790
12.639160	18.754883	32.894276
15.085449	9.377441	32.781407
9.785156	7.746582	32.653022
14.270020	5.300293	32.508998
14.677734	3.261719	32.351264
16.308594	10.600586	32.182428
23.239746	22.832031	32.005956
19.978027	28.540039	31.825591
17.124023	28.540039	31.641058
19.570313	29.763184	31.451025
17.531738	35.878906	31.255942
17.531738	32.617187	31.055813
15.493164	29.763184	30.850007
17.531738	27.724609	30.638462
11.008301	25.686035	30.420481
11.008301	32.617187	30.193694
11.823730	33.024902	29.957239
8.154297	24.055176	29.711266
14.677734	19.570313	29.456466
18.754883	25.686035	29.197041
18.754883	24.055176	28.937328
20.385742	24.462891	28.679112
21.201172	26.501465	28.423669
16.308594	22.424316	28.170713
21.201172	27.316895	27.919325
16.308594	25.278320	27.669699
15.085449	32.209473	27.420410
9.377441	29.763184	27.168279
13.046875	34.248047	26.911342
15.493164	29.355469	26.651159
12.639160	27.724609	26.389649
12.231445	25.686035	26.126183
11.008301	15.900879	25.859842
10.600586	8.562012	25.590178
7.338867	5.708008	25.316234
13.454590	8.562012	25.038277
11.823730	14.270020	24.758709
14.270020	17.124023	24.479289
14.270020	23.239746	24.201160
12.639160	24.055176	23.924770
15.493164	24.055176	23.650225
15.493164	26.909180	23.378799
15.085449	36.694336	23.111280
12.639160	39.548340	22.846915
10.600586	46.479492	22.583910
5.708008	40.771484	22.319482
2.854004	31.801758	22.050116
6.931152	24.055176	21.774608
9.377441	22.424316	21.495558
14.677734	15.085449	21.217170
9.785156	12.231445	20.941847
12.231445	8.969727	20.669206
12.231445	1.223145	20.399410
16.308594	1.223145	20.134328
17.531738	8.969727	19.876489
19.570313	17.531738	19.628083
15.900879	26.909180	19.389374
17.531738	35.878906	19.159208
15.085449	39.548340	18.936691
15.493164	37.102051	18.720960
13.454590	33.432617	18.510971
16.308594	34.248047	18.306469
15.493164	25.686035	18.108170
12.639160	18.347168	17.915574
11.823730	11.823730	17.726697
11.823730	12.639160	17.540390
8.562012	13.454590	17.355661
10.600586	20.385742	17.171456
3.669434	19.978027	16.986337
7.338867	19.570313	16.798399
11.823730	28.947754	16.609251
16.308594	29.763184	16.423646
14.270020	33.432617	16.244617
14.677734	36.694336	16.072268
16.716309	46.479492	15.906692
17.531738	38.732910	15.749148
14.677734	35.878906	15.599652
9.785156	29.763184	15.455427
9.377441	19.978027	15.312956
11.823730	12.231445	15.171455
9.377441	9.377441	15.031563
2.854004	11.416016	14.890997
-2.854004	12.231445	14.744368
1.630859	13.454590	14.588569
5.300293	14.677734	14.426000
7.746582	18.754883	14.260887
4.077148	30.578613	14.094805
-4.892578	35.878906	13.924331
-3.261719	34.655762	13.744594
-9.785156	38.325195	13.552990
-4.892578	36.694336	13.348544
-8.154297	24.055176	13.132054
-2.446289	26.909180	12.905364
-0.815430	32.617187	12.671743
-2.854004	28.132324	12.433574
-2.446289	28.947754	12.190775
1.630859	26.909180	11.944563
-2.446289	22.424316	11.696529
-2.854004	13.046875	11.445837
-2.446289	15.900879	11.191694
-0.815430	19.162598	10.935058
-0.815430	21.608887	10.677276
-1.223145	27.724609	10.418991
0.000000	34.248047	10.160607
-2.854004	30.578613	9.902183
-7.746582	30.986328	9.641530
-6.931152	37.509766	9.375917
-8.154297	34.655762	9.104670
-9.785156	36.286621	8.827472
-9.785156	34.655762	8.543706
-14.677734	25.686035	8.252255
-13.454590	22.424316	7.951522
-13.046875	20.385742	7.641711
-16.716309	16.308594	7.323128
-19.162598	5.708008	6.994044
-18.347168	11.008301	6.653244
-18.754883	11.008301	6.301297
-23.647461	13.454590	5.937791
-19.978027	21.201172	5.561920
-22.832031	24.055176	5.174531
-21.608887	24.055176	4.776340
-20.385742	25.686035	4.368467
-19.162598	29.763184	3.953066
-22.832031	27.724609	3.530915
-21.608887	23.239746	3.101477
-25.278320	17.124023	2.664248
-23.239746	7.338867	2.218971
-19.978027	-0.815430	1.767442
-24.055176	-2.854004	1.311596
-30.986328	4.892578	0.849002
-35.878906	6.931152	0.374455
-35.063477	21.608887	-0.115183
-40.771484	27.724609	-0.621069
-44.440918	27.724609	-1.145684
-44.848633	34.248047	-1.691163
-44.848633	35.878906	-2.257164
-40.363770	39.140625	-2.841093
-40.363770	42.402344	-3.439168
-45.256348	48.110352	-4.050225
-53.002930	35.063477	-4.677639
-57.080078	31.394043	-5.326438
-64.011230	32.617187	-6.000967
-66.457520	21.608887	-6.704707
-67.680664	19.162598	-7.439021
-67.272949	6.931152	-8.202932
-68.088379	-1.223145	-8.994617
-69.719238	-3.261719	-9.812734
-70.534668	3.669434	-10.656513
-68.903809	7.746582	-11.524331
-69.311523	13.046875	-12.413652
-66.457520	23.647461	-13.321603
-70.942383	35.878906	-14.246172
-72.980957	35.471191	-15.187777
-74.611816	43.625488	-16.147333
-77.465820	55.449219	-17.125161
-82.358398	55.041504	-18.122619
-87.658691	55.449219	-19.142481
-86.843262	46.479492	-20.186516
-91.735840	36.694336	-21.254782
-94.589844	38.732910	-22.348163
-97.443848	39.140625	-23.467907
-104.375000	33.024902	-24.615712
-108.452148	17.124023	-25.794564
-111.306152	17.124023	-27.006529
-116.198730	7.746582	-28.252689
-117.421875	7.746582	-29.533826
-113.344727	15.493164	-30.847866
-112.529297	24.055176	-32.189903
-113.344727	21.201172	-33.555973
-109.267578	19.162598	-34.942693
-104.375000	22.832031	-36.344459
-112.529297	19.978027	-37.757617
-121.906738	19.978027	-39.185626
-123.945312	28.540039	-40.633919
-126.391602	29.763184	-42.104231
-131.284180	34.655762	-43.597125
-135.769043	24.870605	-45.114401
-137.807617	17.531738	-46.657537
-139.846191	11.823730	-48.226523
-141.477051	19.978027	-49.820575
-143.923340	16.716309	-51.438918
-146.777344	13.046875	-53.081212
-141.477051	10.600586	-54.745397
-144.331055	4.077148	-56.427448
-145.146484	10.600586	-58.125108
-143.923340	21.608887	-59.836742
-140.661621	27.724609	-61.558635
-141.477051	21.201172	-63.286692
-147.592773	21.608887	-65.019994
-151.669922	18.754883	-66.760982
-157.377930	13.046875	-68.512726
-158.601074	9.377441	-70.277289
-161.862793	9.377441	-72.055235
-165.532227	13.046875	-73.847089
-168.386230	14.270020	-75.653871
-170.017090	18.347168	-77.475898
-170.832520	10.600586	-79.312386
-169.609375	6.931152	-81.161285
-170.832520	4.077148	-83.019984
-170.832520	11.008301	-84.886406
-164.309082	11.823730	-86.756847
-161.455078	13.454590	-88.624984
-163.901367	19.162598	-90.486388
-163.085937	18.347168	-92.339728
-161.455078	14.677734	-94.183209
-165.124512	5.708008	-96.015233
-175.725098	0.407715	-97.838679
-171.647949	6.523437	-99.657482
-175.317383	7.338867	-101.471547
-172.463379	5.708008	-103.279289
-181.025391	0.407715	-105.080810
-180.209961	3.669434	-106.878034
-181.840820	1.630859	-108.671514
-180.209961	10.600586	-110.459751
-181.840820	18.754883	-112.241104
-179.394531	15.900879	-114.013797
-180.209961	15.493164	-115.775719
-177.355957	15.085449	-117.524543
-173.686523	20.385742	-119.256774
-180.617676	18.754883	-120.970488
-180.209961	19.978027	-122.667294
-180.209961	16.308594	-124.347781
-185.102539	11.823730	-126.012102
-183.471680	11.416016	-127.661382
-189.179687	8.562012	-129.296497
-191.625977	1.630859	-130.919585
-193.664551	-1.223145	-132.532805
-189.179687	3.669434	-134.135445
-187.956543	10.600586	-135.724157
-187.956543	13.454590	-137.296084
-182.656250	16.716309	-138.848620
-182.656250	17.124023	-140.378228
-184.287109	14.677734	-141.883375
-184.287109	18.754883	-143.364447
-181.840820	25.278320	-144.820762
-185.917969	21.201172	-146.251699
-183.063965	19.978027	-147.657653
-183.063965	17.124023	-149.037851
-181.840820	14.270020	-150.390939
-183.063965	11.823730	-151.716402
-184.694824	12.639160	-153.014848
-188.364258	12.231445	-154.288281
-195.703125	13.454590	-155.540779
-192.849121	12.639160	-156.776045
-196.926270	9.377441	-157.995060
-195.295410	7.338867	-159.198245
-191.218262	15.493164	-160.384196
-192.033691	15.900879	-161.550091
-185.510254	20.385742	-162.693258
-184.287109	27.724609	-163.809991
-185.102539	34.655762	-164.898173
-185.510254	29.763184	-165.958167
-188.364258	25.686035	-166.991316
-187.956543	25.278320	-167.999251
-187.956543	10.600586	-168.982589
-183.063965	11.416016	-169.940020
-183.471680	12.231445	-170.869248
-185.917969	7.338867	-171.770147
-189.587402	0.815430	-172.645411
-189.179687	11.008301	-173.497743
-191.218262	9.785156	-174.328574
-184.694824	12.231445	-175.137254
-181.433105	15.493164	-175.920189
-189.995117	7.338867	-176.676546
-189.995117	6.931152	-177.410374
-191.218262	11.823730	-178.124494
-189.179687	23.239746	-178.819157
-183.879395	26.909180	-179.492371
-181.840820	28.132324	-180.140546
-181.433105	31.801758	-180.761564
-184.694824	20.793457	-181.356111
-187.956543	15.900879	-181.927226
-187.956543	12.231445	-182.477939
-192.033691	10.600586	-183.010525
-187.956543	10.600586	-183.526317
-183.471680	11.008301	-184.023284
-180.209961	11.416016	-184.497474
-181.840820	9.377441	-184.946956
-179.394531	14.270020	-185.371736
-180.617676	15.493164	-185.771950
-176.948242	16.716309	-186.147329
-174.501953	17.531738	-186.496352
-168.386230	23.239746	-186.815994
-173.278809	19.162598	-187.104677
-172.871094	20.385742	-187.364359
-182.656250	19.978027	-187.599723
-184.287109	14.677734	-187.817085
-181.025391	10.600586	-188.019604
-180.617676	5.300293	-188.206346
-180.617676	1.630859	-188.376759
-180.209961	-5.300293	-188.531190
-181.025391	-3.261719	-188.670201
-177.355957	-4.077148	-188.793702
-174.501953	-3.669434	-188.899803
-170.017090	2.854004	-188.985539
-165.939941	2.854004	-189.047566
-165.532227	6.931152	-189.083465
-167.570801	13.046875	-189.093634
-168.386230	19.978027	-189.080406
-169.201660	14.677734	-189.046032
-172.463379	17.124023	-188.993008
-174.501953	18.754883	-188.924696
-175.317383	6.931152	-188.844003
-172.463379	12.231445	-188.751790
-169.201660	9.377441	-188.646533
-168.386230	7.338867	-188.526257
-170.017090	-4.077148	-188.390911
-166.755371	-3.261719	-188.241107
-160.231934	-2.446289	-188.074658
-156.970215	3.669434	-187.887352
-157.377930	8.154297	-187.677012
-158.601074	11.008301	-187.444580
-154.931641	12.639160	-187.191088
-148.408203	9.377441	-186.914436
-144.738770	18.347168	-186.610609
-145.146484	14.270020	-186.277624
-147.185059	8.562012	-185.916938
-144.331055	14.270020	-185.530613
-147.592773	8.562012	-185.120109
-148.815918	5.708008	-184.688240
-143.515625	2.854004	-184.236533
-137.807617	4.892578	-183.762401
-139.030762	4.077148	-183.263287
-134.545898	8.562012	-182.738812
-134.953613	8.562012	-182.188750
-135.769043	11.416016	-181.614088
-137.399902	10.600586	-181.017508
-143.923340	14.677734	-180.403416
-140.253906	15.900879	-179.776141
-143.107910	22.424316	-179.137476
-138.623047	25.278320	-178.487966
-136.176758	22.832031	-177.826534
-133.322754	22.424316	-177.151204
-131.691895	19.162598	-176.460744
-128.837891	14.270020	-175.754208
-130.468750	15.085449	-175.031570
-132.099609	8.562012	-174.294852
-134.953613	4.892578	-173.547502
-134.953613	-4.484863	-172.792716
-134.953613	-1.630859	-172.032372
-133.322754	0.000000	-171.267092
-128.430176	3.669434	-170.495764
-125.576172	7.746582	-169.715723
-122.722168	10.600586	-168.924648
-127.207031	15.493164	-168.122800
-128.022461	24.462891	-167.313331
-125.576172	26.501465	-166.498400
-128.022461	21.201172	-165.678683
-125.168457	24.055176	-164.855150
-119.868164	19.978027	-164.026592
-116.198730	15.085449	-163.189607
-116.198730	11.008301	-162.342138
-115.791016	2.446289	-161.484478
-119.868164	-0.815430	-160.618847
-121.906738	-0.407715	-159.749087
-120.275879	6.523437	-158.878012
-119.052734	6.931152	-158.005955
-117.829590	5.300293	-157.132484
-121.091309	13.046875	-156.258473
-121.091309	14.677734	-155.386259
-116.198730	19.978027	-154.516247
-114.567871	21.201172	-153.646253
-115.791016	28.132324	-152.775370
-116.606445	21.201172	-151.904981
-114.567871	24.870605	-151.036193
-113.752441	25.278320	-150.168775
-114.567871	13.454590	-149.302828
-109.267578	8.969727	-148.438015
-115.383301	5.708008	-147.574230
-111.713867	5.708008	-146.713192
-114.567871	4.077148	-145.856108
-113.344727	4.077148	-145.003915
-108.044434	4.077148	-144.156002
-110.898438	8.154297	-143.310708
-108.044434	10.600586	-142.468160
-108.044434	16.308594	-141.628371
-101.928711	17.124023	-140.789741
-105.598145	16.308594	-139.950849
-103.967285	16.308594	-139.112482
-101.113281	17.124023	-138.274855
-102.744141	18.754883	-137.437314
-96.628418	14.677734	-136.599236
-101.520996	6.931152	-135.760027
-100.297852	1.630859	-134.921263
-100.705566	5.708008	-134.084554
-96.628418	7.338867	-133.249508
-99.482422	8.969727	-132.415642
-99.482422	5.708008	-131.584208
-101.520996	0.407715	-130.757253
-100.297852	0.815430	-129.936194
-93.774414	9.785156	-129.119806
-90.920410	14.677734	-128.304235
-92.551270	15.900879	-127.487518
-90.512695	19.978027	-126.670137
-88.066406	29.763184	-125.851694
-90.920410	23.647461	-125.032028
-88.474121	25.686035	-124.212268
-90.920410	18.347168	-123.393388
-87.250977	7.746582	-122.575887
-89.697266	4.892578	-121.759919
-86.435547	1.223145	-120.945737
-92.958984	0.407715	-120.134756
-88.881836	-5.300293	-119.329185
-92.143555	3.669434	-118.530052
-84.804687	6.931152	-117.736621
-83.989258	11.008301	-116.946253
-82.766113	15.493164	-116.156963
-77.873535	19.162598	-115.367389
-77.873535	24.462891	-114.575483
-80.319824	32.617187	-113.781538
-81.542969	35.878906	-112.988089
-84.804687	28.540039	-112.198089
-86.843262	28.132324	-111.414781
-83.173828	23.239746	-110.639651
-87.250977	13.046875	-109.872819
-86.843262	12.639160	-109.115787
-84.804687	8.562012	-108.369228
-86.435547	8.562012	-107.632702
-84.804687	0.000000	-106.906421
-81.135254	5.708008	-106.189291
-81.542969	6.523437	-105.479403
-80.319824	12.231445	-104.776102
-75.427246	13.046875	-104.078010
-81.542969	16.716309	-103.384338
-76.242676	15.085449	-102.696149
-77.465820	14.677734	-102.013063
-76.650391	15.493164	-101.334601
-76.650391	17.531738	-100.661161
-73.388672	24.870605	-99.992150
-69.719238	19.978027	-99.325394
-72.980957	19.162598	-98.659563
-68.088379	19.162598	-97.994779
-72.573242	8.562012	-97.331159
-69.719238	9.377441	-96.669667
-71.757812	4.484863	-96.011117
-72.165527	7.746582	-95.356496
-71.757812	8.562012	-94.706955
-68.088379	10.600586	-94.061878
-64.826660	13.454590	-93.418846
-64.826660	6.931152	-92.775767
-61.157227	9.377441	-92.131496
-58.710937	17.124023	-91.484194
-59.526367	22.424316	-90.832645
-63.195801	24.870605	-90.178474
-62.380371	30.986328	-89.524416
-63.603516	30.578613	-88.872009
-63.195801	18.347168	-88.222186
-59.118652	16.308594	-87.574549
-58.303223	15.900879	-86.927215
-61.564941	11.008301	-86.280209
-63.195801	6.931152	-85.636123
-61.564941	7.746582	-84.996787
-63.195801	5.708008	-84.362657
-61.564941	5.708008	-83.734164
-59.934082	12.231445	-83.110856
-56.264648	18.347168	-82.490904
-53.002930	14.270020	-81.871595
-55.449219	18.347168	-81.251514
-54.633789	22.424316	-80.631562
-54.633789	27.724609	-80.012600
-49.741211	27.316895	-79.393734
-52.595215	20.793457	-78.773788
-51.372070	15.493164	-78.153356
-49.741211	13.046875	-77.532790
-51.372070	10.600586	-76.911999
-55.856934	5.300293	-76.293253
-56.264648	1.223145	-75.679999
-56.264648	0.815430	-75.074027
-56.264648	-6.523437	-74.475749
-52.187500	-5.300293	-73.884375
-53.818359	1.223145	-73.298500
-52.187500	7.746582	-72.717848
-48.518066	17.124023	-72.141399
-48.110352	18.754883	-71.567106
-43.625488	25.686035	-70.993118
-51.372070	19.162598	-70.419596
-51.372070	19.162598	-69.850013
-55.856934	14.677734	-69.288003
-53.410645	12.231445	-68.735526
-53.002930	11.416016	-68.192517
-49.741211	1.223145	-67.657403
-50.964355	-4.892578	-67.128890
-50.964355	-5.708008	-66.607019
-47.702637	-3.669434	-66.091503
-53.002930	-2.854004	-65.582275
-51.372070	3.261719	-65.081082
-48.518066	15.493164	-64.587875
-50.556641	16.308594	-64.101416
-48.925781	17.124023	-63.621805
-48.518066	21.201172	-63.148806
-40.771484	32.209473	-62.679939
-41.179199	23.239746	-62.211440
-40.363770	25.278320	-61.741750
-38.732910	18.347168	-61.270665
-39.140625	8.969727	-60.797782
-41.179199	10.600586	-60.323998
-41.179199	7.746582	-59.851032
-43.625488	6.931152	-59.380520
-44.848633	0.407715	-58.914454
-48.518066	0.815430	-58.455369
-44.033203	0.407715	-58.004503
-39.548340	6.523437	-57.559388
-37.509766	14.677734	-57.116160
-35.878906	11.416016	-56.672522
-30.986328	8.562012	-56.226281
-28.540039	15.900879	-55.774383
-20.385742	20.793457	-55.312845
-24.870605	21.608887	-54.838842
-25.278320	22.424316	-54.353758
-29.355469	19.162598	-53.861068
-33.840332	7.746582	-53.365061
-31.394043	7.746582	-52.869194
-32.617187	6.931152	-52.374195
-31.394043	6.931152	-51.880224
-34.655762	0.407715	-51.388289
-34.655762	6.931152	-50.900206
-32.617187	8.154297	-50.416637
-35.471191	9.785156	-49.937562
-30.986328	13.454590	-49.463067
-36.286621	14.677734	-48.993229
-30.578613	20.793457	-48.528439
-26.909180	24.870605	-48.066384
-20.385742	29.763184	-47.602286
-19.570313	31.394043	-47.132120
-19.162598	26.909180	-46.654405
-17.531738	15.085449	-46.169129
-19.162598	0.815430	-45.676608
-24.870605	0.000000	-45.179617
-26.501465	1.223145	-44.682736
-27.724609	1.630859	-44.189159
-25.686035	-0.407715	-43.699791
-29.355469	11.823730	-43.215169
-29.763184	7.338867	-42.737088
-25.686035	11.416016	-42.265859
-26.909180	13.046875	-41.799955
-23.647461	15.493164	-41.338339
-24.462891	13.046875	-40.880122
-17.531738	16.308594	-40.423383
-14.677734	24.462891	-39.964358
-16.716309	19.978027	-39.500849
-14.677734	19.162598	-39.033331
-18.347168	26.909180	-38.562906
-20.793457	19.978027	-38.092234
-24.870605	19.162598	-37.625142
-25.278320	12.231445	-37.164850
-30.986328	5.708008	-36.714318
-32.617187	-2.854004	-36.277112
-29.763184	3.669434	-35.854693
-30.578613	8.969727	-35.445979
-24.870605	4.484863	-35.048958
-23.647461	7.746582	-34.660410
-19.162598	4.484863	-34.277040
-15.900879	18.347168	-33.895482
-17.531738	25.278320	-33.513590
-15.085449	24.870605	-33.131140
-18.754883	18.347168	-32.748665
-20.385742	20.793457	-32.368282
-18.347168	15.493164	-31.991581
-18.754883	7.746582	-31.618256
-18.347168	5.300293	-31.248116
-16.716309	7.746582	-30.880872
-19.978027	4.484863	-30.516672
-21.201172	-6.931152	-30.157365
-21.201172	-7.338867	-29.804608
-20.385742	-7.746582	-29.458581
-14.677734	-8.969727	-29.117416
-16.716309	-0.815430	-28.778572
-14.677734	7.338867	-28.441338
-9.785156	13.046875	-28.104173
-9.377441	22.424316	-27.764215
-8.969727	22.424316	-27.420342
-8.154297	21.201172	-27.072558
-8.969727	18.347168	-26.721082
-8.562012	17.124023	-26.366560
-14.270020	13.046875	-26.011001
-17.124023	8.562012	-25.658467
-13.046875	4.077148	-25.311119
-16.716309	2.854004	-24.968659
-13.454590	-0.815430	-24.631226
-14.270020	4.892578	-24.298410
-13.046875	12.231445	-23.969602
-9.377441	13.046875	-23.643574
-8.969727	12.231445	-23.318187
-8.562012	15.493164	-22.992467
-8.562012	13.046875	-22.666451
-10.600586	15.493164	-22.340923
-8.154297	19.570313	-22.016632
-10.600586	20.793457	-21.693755
-6.523437	25.686035	-21.372139
-4.077148	22.424316	-21.049923
-1.630859	19.162598	-20.724473
-4.077148	11.416016	-20.394993
-3.261719	13.454590	-20.062441
-3.669434	7.746582	-19.727625
-4.077148	2.854004	-19.391108
-4.892578	4.892578	-19.053856
-7.338867	5.300293	-18.717435
-8.969727	6.931152	-18.384087
-6.523437	16.308594	-18.054882
-4.892578	16.308594	-17.728692
-3.261719	23.647461	-17.403795
0.407715	25.278320	-17.078225
2.854004	21.201172	-16.749356
6.931152	19.978027	-16.414362
10.600586	18.754883	-16.070125
4.484863	17.124023	-15.716033
8.562012	11.416016	-15.354082
7.338867	6.931152	-14.984795
5.300293	3.669434	-14.609000
4.484863	2.854004	-14.228992
0.815430	2.446289	-13.847290
0.000000	11.416016	-13.466727
2.446289	13.046875	-13.088402
-1.223145	15.085449	-12.712504
1.630859	19.162598	-12.339854
-1.630859	19.570313	-11.971016
-2.446289	17.531738	-11.607384
0.000000	23.239746	-11.249747
2.446289	23.647461	-10.896494
2.446289	12.231445	-10.545872
5.708008	13.046875	-10.196630
8.562012	15.493164	-9.846608
9.377441	14.677734	-9.493639
2.446289	14.677734	-9.138872
6.931152	12.639160	-8.785007
0.815430	9.377441	-8.433449
0.407715	3.669434	-8.086604
3.669434	7.746582	-7.745585
4.077148	4.892578	-7.408776
4.077148	9.377441	-7.075266
5.708008	17.124023	-6.744722
3.669434	21.201172	-6.417036
2.854004	24.870605	-6.093279
5.300293	29.763184	-5.773934
8.562012	34.655762	-5.457209
5.708008	20.793457	-5.141712
11.823730	26.501465	-4.826755
9.377441	28.947754	-4.510823
7.746582	17.124023	-4.194400
8.562012	14.677734	-3.879126
8.562012	8.969727	-3.565280
8.562012	7.338867	-3.252912
9.785156	3.669434	-2.941963
7.746582	10.600586	-2.632589
10.600586	12.639160	-2.325041
5.708008	14.677734	-2.019884
9.377441	11.823730	-1.718185
11.008301	8.562012	-1.419034
8.562012	6.931152	-1.121451
9.785156	15.085449	-0.826214
12.231445	26.501465	-0.532885
11.416016	25.278320	-0.240291
14.677734	30.986328	0.052362
16.308594	29.763184	0.346694
18.347168	21.201172	0.644567
17.124023	21.201172	0.946687
15.493164	22.832031	1.252008
16.308594	23.239746	1.559100
14.270020	11.416016	1.867026
16.716309	12.639160	2.175208
17.531738	15.900879	2.484276
12.639160	15.900879	2.793651
14.677734	24.055176	3.101173
14.677734	24.055176	3.406389
19.162598	26.909180	3.710795
17.124023	24.055176	4.015931
15.085449	28.947754	4.321012
15.085449	28.947754	4.624116
18.754883	23.647461	4.925441
17.531738	28.947754	5.226358
16.308594	24.055176	5.526569
15.900879	24.870605	5.824720
23.647461	19.162598	6.122090
18.347168	14.677734	6.420973
15.085449	6.931152	6.719379
18.347168	11.416016	7.014768
16.308594	7.746582	7.307286
15.900879	12.639160	7.596436
21.201172	19.978027	7.882709
22.424316	20.385742	8.168934
22.424316	24.870605	8.456846
27.316895	23.647461	8.747673
24.870605	28.947754	9.042905
27.724609	31.394043	9.342783
28.132324	30.986328	9.647744
27.724609	28.947754	9.958095
28.132324	16.308594	10.273265
23.647461	21.201172	10.591634
28.947754	19.162598	10.911865
26.501465	19.570313	11.234502
25.278320	14.677734	11.558882
25.686035	14.677734	11.883407
23.647461	7.746582	12.207087
25.278320	6.931152	12.529085
22.424316	17.531738	12.848710
26.501465	24.055176	13.165734
27.724609	30.986328	13.481655
24.870605	37.509766	13.797156
28.947754	42.402344	14.111816
24.870605	34.655762	14.425665
24.462891	40.363770	14.737231
25.278320	34.655762	15.045219
25.686035	25.686035	15.349897
27.316895	20.385742	15.651950
24.462891	19.162598	15.951395
24.055176	15.493164	16.246858
23.647461	11.416016	16.537136
28.540039	11.823730	16.823124
24.462891	13.046875	17.106109
26.501465	14.270020	17.385607
24.462891	15.900879	17.660947
28.132324	19.162598	17.932457
32.209473	24.870605	18.202489
29.763184	26.501465	18.473289
35.063477	33.432617	18.745715
32.209473	26.909180	19.020801
34.655762	24.870605	19.298672
28.132324	17.531738	19.577732
30.578613	15.493164	19.855492
26.909180	19.570313	20.130326
27.316895	19.978027	20.400900
27.724609	17.531738	20.666481
32.617187	12.231445	20.928621
30.986328	8.969727	21.189452
31.801758	10.600586	21.449399
30.578613	17.531738	21.707910
31.394043	22.424316	21.964563
31.394043	26.909180	22.219280
31.801758	27.724609	22.472202
31.394043	35.063477	22.723252
36.286621	37.509766	22.973430
31.394043	30.986328	23.223689
36.286621	18.347168	23.473764
38.325195	6.931152	23.725220
34.655762	4.077148	23.979123
34.248047	6.931152	24.233597
31.394043	7.746582	24.486419
32.209473	5.708008	24.736007
28.947754	4.892578	24.981067
30.578613	10.600586	25.220476
33.024902	9.377441	25.454880
30.578613	6.931152	25.685332
30.578613	16.308594	25.911125
37.102051	16.308594	26.133305
38.325195	17.531738	26.355550
39.956055	23.239746	26.580409
36.694336	29.355469	26.807847
35.878906	24.462891	27.036011
36.694336	21.608887	27.263555
40.363770	14.677734	27.491448
35.471191	8.154297	27.720290
31.394043	11.416016	27.947122
28.947754	11.416016	28.167725
32.209473	7.746582	28.380651
32.209473	4.077148	28.587094
39.140625	7.746582	28.789810
42.810059	11.416016	28.993359
41.179199	10.600586	29.200811
46.887207	19.978027	29.413376
44.440918	24.055176	29.632527
44.033203	24.870605	29.857844
44.033203	29.763184	30.087952
47.702637	37.102051	30.323250
44.033203	38.732910	30.564220
44.033203	36.286621	30.809387
39.548340	35.878906	31.056161
39.956055	20.793457	31.301962
37.102051	20.385742	31.544860
41.179199	11.416016	31.784413
40.363770	15.085449	32.021696
42.402344	5.708008	32.257742
47.294922	12.231445	32.494502
47.294922	16.308594	32.734799
47.294922	16.716309	32.979507
43.625488	22.424316	33.227204
40.363770	27.724609	33.474710
43.217773	24.055176	33.719846
40.363770	27.724609	33.962354
42.402344	35.471191	34.201885
38.325195	34.655762	34.437572
39.956055	34.655762	34.668164
42.810059	33.432617	34.894184
46.887207	28.540039	35.118601
43.217773	23.647461	35.343180
44.440918	22.424316	35.567142
39.140625	17.531738	35.788566
44.033203	14.677734	36.006156
44.848633	17.124023	36.221250
45.664062	19.570313	36.435662
41.179199	15.085449	36.648663
41.179199	23.239746	36.857950
39.140625	29.355469	37.061759
42.402344	34.248047	37.259909
44.033203	32.209473	37.454056
43.217773	33.432617	37.645675
42.810059	28.540039	37.834573
42.402344	28.947754	38.020140
45.256348	27.724609	38.202759
46.479492	19.978027	38.384087
45.256348	15.900879	38.565061
39.956055	18.754883	38.743795
39.140625	21.201172	38.916881
39.140625	10.600586	39.082574
42.402344	11.823730	39.241676
44.440918	13.046875	39.396568
39.548340	14.677734	39.547921
39.956055	24.055176	39.693809
38.325195	28.540039	39.832826
40.771484	30.578613	39.965031
41.586914	33.024902	40.091663
43.217773	38.325195	40.214343
42.810059	29.355469	40.334084
48.110352	31.801758	40.452501
48.110352	30.578613	40.572205
44.440918	26.909180	40.693442
42.402344	22.424316	40.813552
42.402344	24.055176	40.930424
37.509766	16.308594	41.042261
43.625488	14.270020	41.148210
45.664062	18.754883	41.250891
45.664062	21.608887	41.353020
48.110352	26.909180	41.455694
48.110352	31.801758	41.560065
44.848633	27.724609	41.665733
43.625488	33.024902	41.770492
41.179199	36.694336	41.872132
46.479492	42.810059	41.970474
43.625488	35.878906	42.066955
44.440918	33.432617	42.161665
44.033203	34.655762	42.254158
43.217773	32.209473	42.344221
42.810059	36.286621	42.431228
44.033203	28.540039	42.515120
49.741211	28.947754	42.597983
46.887207	20.385742	42.682348
50.964355	25.278320	42.769128
51.779785	23.239746	42.859731
49.741211	22.832031	42.954852
48.518066	34.655762	43.053007
44.440918	33.024902	43.151707
44.848633	39.140625	43.248467
47.294922	36.694336	43.343060
55.041504	44.440918	43.438911
50.964355	32.209473	43.539504
53.818359	28.947754	43.645162
51.779785	31.394043	43.755436
49.741211	24.870605	43.869144
49.333496	29.763184	43.984299
49.333496	25.686035	44.099963
49.741211	19.978027	44.215992
49.741211	15.493164	44.332462
49.741211	22.424316	44.449338
48.518066	19.570313	44.566157
45.664062	15.493164	44.681406
48.925781	16.716309	44.794072
53.002930	24.055176	44.906188
56.672363	24.870605	45.021625
58.303223	30.578613	45.143537
55.449219	42.402344	45.272574
53.410645	43.217773	45.406672
53.818359	35.471191	45.543746
50.964355	34.655762	45.682446
53.410645	21.201172	45.821803
53.002930	23.239746	45.962070
56.264648	24.055176	46.104343
55.856934	21.608887	46.249882
49.741211	23.239746	46.397420
51.372070	26.501465	46.543821
51.372070	19.162598	46.688234
53.818359	26.909180	46.831666
55.856934	28.132324	46.975834
57.487793	30.578613	47.122693
63.603516	34.655762	47.274967
60.749512	36.286621	47.435142
64.011230	43.625488	47.603655
64.826660	37.102051	47.781130
60.749512	38.732910	47.967188
60.749512	33.432617	48.159318
53.002930	27.724609	48.353935
56.264648	26.909180	48.547511
57.487793	29.355469	48.739888
56.672363	20.385742	48.932204
62.788086	7.746582	49.125759
62.788086	21.201172	49.323293
61.157227	24.055176	49.525595
57.487793	30.578613	49.730417
55.041504	30.986328	49.934430
59.118652	34.248047	50.136279
59.118652	35.878906	50.337348
61.564941	40.363770	50.539175
63.603516	45.664062	50.743335
63.603516	41.586914	50.951222
63.195801	42.810059	51.162875
64.011230	36.694336	51.377903
65.234375	30.986328	51.596568
64.418945	24.055176	51.819119
60.749512	29.763184	52.044076
59.118652	25.278320	52.268521
55.449219	15.900879	52.489459
59.118652	21.201172	52.705422
55.041504	18.347168	52.916303
53.002930	23.239746	53.120397
59.526367	26.909180	53.317369
55.449219	25.686035	53.509154
61.564941	29.763184	53.696965
61.157227	35.063477	53.882819
59.526367	39.140625	54.067574
57.080078	35.878906	54.249478
58.303223	37.102051	54.427078
59.934082	38.732910	54.600810
59.526367	28.947754	54.771738
59.934082	25.686035	54.940131
62.788086	25.686035	55.106783
59.118652	26.909180	55.272241
59.118652	23.239746	55.435208
60.749512	30.578613	55.595088
61.157227	32.209473	55.752818
62.788086	18.754883	55.909401
59.934082	22.424316	56.064938
68.088379	23.239746	56.220385
68.088379	30.986328	56.379116
65.642090	41.179199	56.542315
63.195801	43.625488	56.707681
59.118652	44.440918	56.871942
55.856934	44.440918	57.031335
59.934082	42.402344	57.184199
58.710937	33.432617	57.331633
63.195801	31.801758	57.475336
60.341797	26.909180	57.616609
63.195801	23.647461	57.755844
57.487793	15.085449	57.892236
57.487793	21.201172	58.023523
59.118652	21.201172	58.148726
56.672363	23.647461	58.268203
61.564941	29.355469	58.382518
60.749512	30.578613	58.493497
64.011230	31.801758	58.602889
63.603516	32.617187	58.712042
63.195801	32.209473	58.821390
62.380371	27.724609	58.930271
65.234375	28.540039	59.038808
61.564941	30.986328	59.147223
60.341797	27.316895	59.253909
62.788086	25.278320	59.357867
59.934082	19.570313	59.459326
59.526367	6.931152	59.557329
55.041504	2.446289	59.649788
60.749512	12.231445	59.735893
59.526367	16.716309	59.817340
56.672363	19.162598	59.894362
53.818359	26.501465	59.964509
51.779785	21.201172	60.025233
52.187500	28.540039	60.075184
55.041504	26.909180	60.115227
66.457520	28.947754	60.150372
59.934082	27.724609	60.185840
59.934082	29.355469	60.221150
57.487793	32.617187	60.253916
55.449219	24.870605	60.282397
53.002930	21.608887	60.304402
51.779785	16.308594	60.318060
53.818359	8.562012	60.322983
56.672363	3.669434	60.321063
60.749512	9.785156	60.315718
59.934082	13.046875	60.309785
59.118652	18.754883	60.303726
57.080078	25.278320	60.296376
55.041504	31.801758	60.285979
57.080078	31.394043	60.271613
63.195801	34.655762	60.255616
63.603516	40.363770	60.241934
64.826660	30.578613	60.232618
61.564941	36.694336	60.227373
59.118652	37.509766	60.223986
60.341797	30.986328	60.220554
57.487793	22.424316	60.216335
54.633789	17.531738	60.209440
55.856934	17.531738	60.198069
55.856934	16.716309	60.182331
58.710937	26.501465	60.163511
63.195801	24.055176	60.144446
63.603516	22.424316	60.128380
61.157227	28.540039	60.115944
67.272949	25.686035	60.107414
66.865234	32.617187	60.105087
64.011230	39.140625	60.109325
64.418945	47.702637	60.118329
66.457520	41.179199	60.131872
65.234375	35.878906	60.150591
62.788086	35.063477	60.173482
65.642090	28.132324	60.199475
61.157227	26.909180	60.228082
60.749512	24.462891	60.257440
59.934082	28.947754	60.285877
57.487793	19.978027	60.312228
59.934082	24.055176	60.335702
57.487793	23.647461	60.356405
60.749512	21.201172	60.374656
58.710937	30.578613	60.391080
59.934082	30.578613	60.405852
61.157227	35.878906	60.419459
62.788086	35.878906	60.433332
66.865234	41.179199	60.449693
64.826660	37.102051	60.470447
63.195801	35.878906	60.494945
63.603516	29.763184	60.521706
63.603516	25.686035	60.550386
64.826660	24.870605	60.581296
64.826660	25.686035	60.614944
62.788086	20.385742	60.650958
66.865234	7.746582	60.689192
68.088379	9.785156	60.731433
68.496094	11.008301	60.779277
70.942383	14.677734	60.833596
67.680664	22.424316	60.894576
64.826660	34.655762	60.960031
64.418945	35.878906	61.027225
64.418945	39.548340	61.095045
65.642090	43.625488	61.163606
62.788086	34.655762	61.232695
62.380371	35.063477	61.300931
65.642090	29.763184	61.368172
66.865234	25.278320	61.436322
67.272949	23.239746	61.506874
61.157227	25.686035	61.578574
61.564941	23.239746	61.648295
62.380371	19.978027	61.714878
64.826660	20.793457	61.779570
64.826660	16.308594	61.843890
62.788086	13.454590	61.907895
64.826660	23.239746	61.970995
63.603516	24.055176	62.033379
65.642090	29.763184	62.095443
65.642090	31.801758	62.157886
68.088379	31.801758	62.221803
69.311523	26.909180	62.288667
71.350098	30.578613	62.360095
65.642090	36.694336	62.435697
64.418945	26.909180	62.512420
65.234375	24.462891	62.588206
65.642090	13.046875	62.663231
69.719238	8.969727	62.738950
69.311523	10.600586	62.817395
70.942383	18.754883	62.899644
69.311523	23.239746	62.985760
61.564941	24.870605	63.073015
63.603516	35.063477	63.157301
63.603516	30.986328	63.237701
66.865234	33.432617	63.315699
65.234375	38.325195	63.392608
64.826660	39.140625	63.468288
58.710937	37.102051	63.540466
59.118652	29.355469	63.606013
60.341797	33.432617	63.664088
59.118652	26.501465	63.715399
55.856934	29.763184	63.759019
55.041504	23.239746	63.793002
59.526367	21.201172	63.817641
56.672363	13.046875	63.834727
56.672363	17.124023	63.844263
58.303223	24.462891	63.846259
57.487793	23.239746	63.841698
61.157227	28.947754	63.831845
62.788086	33.432617	63.819093
64.826660	36.694336	63.805942
62.380371	39.140625	63.793282
64.826660	43.625488	63.780996
64.826660	31.801758	63.769722
63.603516	28.947754	63.759749
64.826660	28.947754	63.750706
65.234375	25.278320	63.742990
63.195801	27.724609	63.736547
61.564941	27.724609	63.729936
57.080078	22.832031	63.720599
59.118652	21.201172	63.706422
59.118652	28.132324	63.687530
62.788086	21.608887	63.665658
63.195801	19.978027	63.642999
64.826660	28.132324	63.621217
72.980957	29.763184	63.603403
69.719238	35.878906	63.593250
69.311523	35.878906	63.590745
69.719238	37.509766	63.594578
64.826660	26.909180	63.603280
68.088379	27.724609	63.615016
61.564941	27.724609	63.628350
63.195801	28.540039	63.641053
62.380371	25.686035	63.652071
59.934082	25.686035	63.660825
59.934082	24.462891	63.665908
59.934082	19.978027	63.666840
59.934082	25.686035	63.663808
59.934082	20.385742	63.656994
58.303223	20.793457	63.646148
61.157227	28.947754	63.631358
67.680664	33.024902	63.615603
68.496094	32.209473	63.603333
71.757812	35.878906	63.597403
72.980957	37.509766	63.599781
69.311523	34.655762	63.610623
74.611816	32.209473	63.629320
73.796387	34.655762	63.657104
69.719238	28.540039	63.693425
67.272949	27.724609	63.734861
69.311523	23.647461	63.779315
71.757812	24.870605	63.827674
74.611816	16.308594	63.882282
73.388672	17.531738	63.944619
67.272949	23.239746	64.012769
71.757812	25.278320	64.084041
71.757812	31.801758	64.158968
70.534668	32.617187	64.238164
68.496094	33.432617	64.320173
71.757812	36.694336	64.404246
71.350098	43.625488	64.491272
70.534668	40.363770	64.581454
61.564941	38.325195	64.671663
65.234375	30.986328	64.757841
62.788086	16.308594	64.839007
61.564941	18.347168	64.914662
63.603516	19.162598	64.984226
61.564941	17.531738	65.048115
59.934082	14.677734	65.105557
61.564941	24.055176	65.155819
66.865234	24.462891	65.200994
66.865234	22.424316	65.244478
66.865234	30.986328	65.287695
71.757812	28.947754	65.331896
72.573242	30.578613	65.379775
72.573242	34.655762	65.432830
71.757812	39.548340	65.490768
72.573242	36.694336	65.553095
66.865234	29.763184	65.618261
65.234375	30.986328	65.682854
64.826660	24.870605	65.744371
63.603516	26.909180	65.801922
65.642090	27.316895	65.855412
58.710937	19.162598	65.903897
55.041504	4.077148	65.943485
60.749512	13.046875	65.972286
64.826660	18.347168	65.993866
68.496094	12.639160	66.013135
66.865234	19.570313	66.032747
68.496094	22.832031	66.053202
68.496094	25.686035	66.074869
64.011230	32.209473	66.096920
69.311523	31.801758	66.118350
66.865234	28.947754	66.140130
68.496094	26.909180	66.162756
69.719238	21.201172	66.186701
68.496094	14.270020	66.212630
60.749512	14.677734	66.238070
64.418945	19.978027	66.259589
62.788086	22.424316	66.276807
58.303223	11.416016	66.288828
60.749512	9.377441	66.293735
58.710937	7.746582	66.291416
62.788086	8.969727	66.282843
62.380371	19.570313	66.269809
61.564941	22.424316	66.253171
69.311523	27.724609	66.234610
70.534668	34.655762	66.218409
70.534668	43.217773	66.207157
70.534668	40.363770	66.200962
71.757812	39.956055	66.199922
71.350098	32.617187	66.204341
66.865234	23.239746	66.212896
65.234375	20.793457	66.222498
63.195801	20.793457	66.230520
62.788086	16.308594	66.235418
60.749512	11.416016	66.236043
64.418945	15.085449	66.232375
68.088379	23.239746	66.226967
66.865234	25.686035	66.222475
67.680664	33.024902	66.219397
66.457520	27.316895	66.217459
67.272949	28.132324	66.216396
70.942383	30.986328	66.217241
70.534668	42.810059	66.221942
68.903809	34.655762	66.230640
65.642090	35.471191	66.241325
57.080078	32.209473	66.249503
53.818359	29.763184	66.249069
57.487793	27.724609	66.237413
59.934082	25.278320	66.216770
58.710937	17.124023	66.189497
58.710937	9.377441	66.155924
61.564941	13.454590	66.116798
63.603516	16.716309	66.074448
60.749512	21.608887	66.030136
56.672363	34.655762	65.981962
55.041504	39.140625	65.926831
58.303223	41.179199	65.864046
59.118652	43.217773	65.795519
62.788086	44.848633	65.723831
64.826660	44.440918	65.651878
65.642090	44.440918	65.581997
63.603516	42.402344	65.514597
66.865234	35.471191	65.449634
66.865234	35.878906	65.388246
64.826660	33.024902	65.330657
62.380371	37.102051	65.275040
59.934082	29.763184	65.218902
59.526367	32.617187	65.160290
63.195801	27.724609	65.099485
61.564941	28.947754	65.038043
63.603516	29.763184	64.976699
64.418945	28.132324	64.916371
60.749512	27.724609	64.857076
62.788086	33.432617	64.797651
62.788086	41.586914	64.738272
60.749512	41.179199	64.678999
63.195801	37.509766	64.619461
63.603516	38.732910	64.560590
61.564941	33.432617	64.502738
56.672363	32.617187	64.443671
58.710937	30.986328	64.380935
59.934082	24.462891	64.314870
58.710937	19.162598	64.246553
61.157227	23.239746	64.176479
59.934082	25.278320	64.105445
63.603516	27.724609	64.034531
68.496094	28.540039	63.966698
68.903809	32.617187	63.905521
69.311523	39.956055	63.852368
70.942383	45.256348	63.807681
71.757812	48.110352	63.772302
71.350098	43.217773	63.746595
69.719238	39.548340	63.729721
70.534668	40.363770	63.720548
63.195801	23.239746	63.716809
63.603516	26.501465	63.714726
64.011230	16.716309	63.712621
64.826660	4.484863	63.711032
63.603516	0.000000	63.710152
67.272949	7.746582	63.710485
67.680664	16.308594	63.713690
73.388672	23.239746	63.722309
72.165527	28.132324	63.738875
71.757812	30.578613	63.763758
65.642090	30.986328	63.794414
68.496094	33.432617	63.827979
68.496094	32.617187	63.864178
71.757812	37.102051	63.904461
70.942383	33.024902	63.950099
66.865234	31.801758	64.000159
68.496094	18.347168	64.052461
66.865234	15.900879	64.106205
65.642090	15.493164	64.160520
61.564941	16.308594	64.213181
57.487793	14.270020	64.260673
61.157227	17.531738	64.300932
61.157227	16.308594	64.335098
62.788086	13.046875	64.364806
64.826660	20.793457	64.391618
67.680664	24.870605	64.417887
72.165527	27.724609	64.446822
73.388672	32.617187	64.481699
73.388672	39.548340	64.524034
72.573242	36.286621	64.573550
69.311523	35.471191	64.628586
68.496094	34.655762	64.686691
67.680664	28.947754	64.746167
63.603516	20.793457	64.805173
59.118652	13.046875	64.860136
55.856934	7.338867	64.906897
55.041504	5.708008	64.942672
59.118652	12.639160	64.967708
55.856934	14.677734	64.983536
56.672363	19.162598	64.990127
64.011230	30.578613	64.989394
62.788086	31.801758	64.985417
68.496094	36.286621	64.981132
70.942383	40.363770	64.979877
69.719238	45.664062	64.983981
65.234375	37.509766	64.992018
65.642090	40.771484	65.001230
60.749512	35.878906	65.009306
59.934082	25.686035	65.013611
64.826660	21.201172	65.013883
61.157227	25.686035	65.011696
57.487793	19.978027	65.005559
59.934082	14.677734	64.993407
60.341797	17.124023	64.975954
58.303223	18.347168	64.953780
56.672363	19.162598	64.925730
57.080078	21.608887	64.890814
60.341797	22.832031	64.850023
60.749512	30.578613	64.805593
65.642090	33.432617	64.760093
64.826660	42.402344	64.716082
65.642090	35.471191	64.674610
67.272949	32.209473	64.636248
61.564941	31.801758	64.600467
64.011230	24.055176	64.565260
62.788086	17.124023	64.530102
64.826660	14.677734	64.495564
62.788086	10.600586	64.461867
58.710937	8.154297	64.427404
61.157227	19.978027	64.390209
64.418945	28.947754	64.351516
70.942383	29.763184	64.315505
70.942383	35.878906	64.286375
68.088379	29.763184	64.264809
69.719238	35.471191	64.249416
66.865234	38.732910	64.239290
72.165527	48.518066	64.234524
67.272949	41.586914	64.235630
67.272949	40.771484	64.241162
63.603516	39.548340	64.248666
63.195801	31.801758	64.256008
62.788086	23.647461	64.261904
67.680664	24.462891	64.267376
68.496094	22.424316	64.275116
63.603516	15.085449	64.285441
67.680664	18.347168	64.296937
67.680664	15.085449	64.310398
69.311523	28.132324	64.327218
61.564941	35.471191	64.346049
59.526367	39.548340	64.362605
64.826660	38.732910	64.375257
62.788086	42.810059	64.385881
65.642090	39.956055	64.395631
60.341797	25.686035	64.404106
65.234375	25.278320	64.410607
68.496094	27.724609	64.417250
67.272949	24.462891	64.426700
68.088379	24.055176	64.439248
68.903809	29.763184	64.455061
60.749512	28.132324	64.472476
60.341797	22.832031	64.487226
59.526367	21.201172	64.496844
59.118652	19.162598	64.500910
60.341797	17.124023	64.499565
63.195801	24.870605	64.494341
60.749512	28.132324	64.486596
67.272949	30.986328	64.477633
63.603516	38.732910	64.469334
68.496094	39.548340	64.462752
71.757812	36.286621	64.460277
71.757812	28.947754	64.464725
68.496094	35.063477	64.475779
64.418945	33.432617	64.490341
65.642090	29.355469	64.505561
62.788086	26.501465	64.520215
63.603516	16.308594	64.533348
63.195801	12.639160	64.544588
64.826660	20.385742	64.554437
65.642090	22.832031	64.563912
68.496094	24.462891	64.574625
68.496094	26.909180	64.588224
72.980957	31.394043	64.606491
76.650391	34.655762	64.632515
77.465820	31.394043	64.669239
79.096680	33.432617	64.717958
76.242676	33.024902	64.778401
74.611816	36.694336	64.848471
72.573242	36.694336	64.925519
67.680664	32.617187	65.006361
68.496094	28.540039	65.087849
64.826660	24.870605	65.168048
63.603516	19.162598	65.244897
64.826660	17.124023	65.317181
66.865234	23.239746	65.385889
67.272949	18.347168	65.452609
68.903809	18.347168	65.518540
67.680664	27.316895	65.584291
62.788086	32.617187	65.648301
61.564941	37.509766	65.707370
64.011230	32.617187	65.760372
68.496094	39.548340	65.809671
69.719238	36.286621	65.858702
76.650391	36.286621	65.911067
74.611816	40.771484	65.969987
72.573242	25.686035	66.035317
65.642090	24.870605	66.103272
63.195801	22.832031	66.168841
63.195801	20.793457	66.228958
61.157227	14.270020	66.282628
61.564941	14.270020	66.329122
63.603516	19.570313	66.368933
61.564941	20.793457	66.402963
65.234375	25.686035	66.431866
65.642090	25.278320	66.457345
66.457520	26.909180	66.480920
69.719238	30.986328	66.504044
67.680664	37.102051	66.528107
61.564941	32.617187	66.551219
62.788086	31.801758	66.569973
67.680664	25.278320	66.584866
68.496094	13.046875	66.599166
70.942383	14.270020	66.615239
67.680664	14.677734	66.633631
63.195801	12.639160	66.651968
63.603516	11.416016	66.667128
69.311523	19.162598	66.679774
67.680664	23.239746	66.692685
65.234375	25.686035	66.705835
62.788086	33.024902	66.716843
66.457520	39.548340	66.724830
63.603516	39.548340	66.730461
61.564941	35.878906	66.732765
61.564941	44.440918	66.730070
56.672363	37.509766	66.720785
62.788086	38.732910	66.704254
57.487793	35.878906	66.681358
61.157227	28.132324	66.652196
65.642090	22.832031	66.618795
66.865234	23.647461	66.585025
57.487793	22.424316	66.550295
60.341797	16.716309	66.510830
56.264648	18.347168	66.464849
53.818359	14.677734	66.410663
57.080078	8.154297	66.347201
61.564941	13.046875	66.277197
63.195801	16.716309	66.204665
63.603516	22.424316	66.131937
64.826660	27.724609	66.060062
61.157227	35.063477	65.988862
61.157227	34.655762	65.916776
63.603516	37.509766	65.843598
64.826660	36.694336	65.771060
61.564941	32.617187	65.699640
61.564941	25.686035	65.627968
62.380371	21.201172	65.555488
65.234375	15.493164	65.483492
59.118652	13.046875	65.412141
60.341797	24.870605	65.339337
59.526367	32.617187	65.264046
59.934082	33.024902	65.186459
59.118652	34.655762	65.106548
59.118652	29.763184	65.024180
61.157227	27.316895	64.939875
61.564941	24.870605	64.854987
63.195801	30.986328	64.770809
63.195801	30.986328	64.688363
57.487793	27.724609	64.606585
59.526367	30.986328	64.523068
57.080078	19.978027	64.436906
60.341797	21.201172	64.348418
56.672363	20.385742	64.257910
55.041504	17.531738	64.164067
50.556641	13.454590	64.064141
55.449219	13.046875	63.957014
57.487793	17.124023	63.845052
61.564941	11.008301	63.732019
64.826660	14.270020	63.621616
65.234375	15.900879	63.516733
64.826660	16.716309	63.418193
66.865234	17.124023	63.326241
64.418945	24.055176	63.240996
59.934082	23.239746	63.160316
60.341797	34.248047	63.081187
55.856934	42.402344	63.001481
56.672363	35.878906	62.919271
59.934082	28.540039	62.834865
61.157227	23.239746	62.750700
64.826660	19.978027	62.669318
64.011230	11.416016	62.592711
65.642090	15.900879	62.521710
65.234375	19.570313	62.456669
67.680664	22.424316	62.398243
66.865234	29.763184	62.347159
63.195801	27.724609	62.302387
64.418945	28.540039	62.261868
61.564941	28.540039	62.224381
61.157227	38.325195	62.188542
64.826660	31.801758	62.154314
59.118652	34.655762	62.121982
60.341797	29.763184	62.089780
56.264648	25.686035	62.055808
59.118652	23.239746	62.019112
53.818359	20.793457	61.978888
55.041504	19.162598	61.933626
49.333496	14.270020	61.881352
52.595215	17.124023	61.820619
55.041504	19.978027	61.752730
52.187500	19.162598	61.679473
63.195801	27.724609	61.603203
59.934082	31.801758	61.528314
65.234375	27.724609	61.457393
66.457520	27.724609	61.392583
64.418945	36.694336	61.335175
56.264648	36.694336	61.282002
55.041504	44.440918	61.227788
53.002930	39.956055	61.169315
52.595215	32.209473	61.105340
53.410645	28.540039	61.035643
55.041504	30.986328	60.961306
51.779785	23.239746	60.882833
51.372070	12.639160	60.799100
51.779785	18.347168	60.709470
53.002930	15.900879	60.614733
50.556641	15.085449	60.515326
55.856934	21.201172	60.411995
49.741211	28.540039	60.305561
53.410645	27.724609	60.195420
55.856934	35.878906	60.082820
59.934082	34.248047	59.971310
55.449219	35.878906	59.862564
59.934082	35.878906	59.756465
51.779785	31.394043	59.652041
46.479492	21.608887	59.544826
49.741211	19.162598	59.430990
45.664062	11.416016	59.310203
50.964355	4.077148	59.183014
49.333496	2.854004	59.051132
49.741211	16.308594	58.915551
47.702637	18.347168	58.775830
49.741211	17.531738	58.631877
53.818359	26.909180	58.485641
55.856934	36.694336	58.340591
57.487793	38.732910	58.199397
60.341797	36.694336	58.064175
59.118652	41.179199	57.936403
61.564941	35.063477	57.816627
55.856934	30.986328	57.704074
56.672363	31.801758	57.596395
53.002930	29.763184	57.491446
53.002930	27.724609	57.387500
49.741211	23.239746	57.282800
48.518066	19.162598	57.175456
48.110352	16.308594	57.064093
56.672363	24.055176	56.950725
63.195801	19.570313	56.841666
64.826660	18.754883	56.742940
68.088379	25.686035	56.657611
64.826660	26.909180	56.586445
65.642090	30.578613	56.528233
59.934082	33.024902	56.480522
62.788086	39.548340	56.440851
57.487793	33.024902	56.407505
59.934082	36.286621	56.378840
60.341797	34.655762	56.354674
58.303223	22.832031	56.335150
53.410645	12.231445	56.317829
55.041504	14.270020	56.299952
54.633789	18.347168	56.281027
55.449219	14.270020	56.261550
57.487793	21.201172	56.242423
55.449219	16.308594	56.224401
55.041504	18.754883	56.206809
55.041504	15.900879	56.188897
55.856934	15.493164	56.170805
57.080078	23.239746	56.153311
56.264648	30.986328	56.137047
58.303223	40.363770	56.122404
53.818359	34.248047	56.109003
57.487793	35.063477	56.095944
56.264648	31.801758	56.083654
53.002930	23.239746	56.071575
54.633789	18.347168	56.058105
55.856934	19.162598	56.043641
55.041504	13.046875	56.029101
53.818359	6.931152	56.014076
55.856934	15.493164	55.998280
56.264648	13.454590	55.982624
55.041504	12.231445	55.967544
62.380371	20.793457	55.954425
57.487793	26.909180	55.945439
57.487793	27.724609	55.939765
59.934082	28.947754	55.936619
61.564941	32.617187	55.937600
64.826660	30.578613	55.944879
64.826660	33.432617	55.960304
64.826660	32.617187	55.984346
59.526367	26.909180	56.015197
59.118652	22.832031	56.049625
55.041504	13.454590	56.084754
55.856934	4.892578	56.118480
53.002930	0.815430	56.149439
52.595215	11.008301	56.176332
55.856934	14.270020	56.199207
52.595215	19.978027	56.218972
53.410645	28.947754	56.235105
50.964355	30.986328	56.246682
50.964355	29.763184	56.252827
48.925781	31.801758	56.252601
53.002930	37.509766	56.246293
51.372070	30.986328	56.235363
51.779785	27.316895	56.220354
50.556641	24.870605	56.200931
51.372070	25.278320	56.176993
50.964355	23.647461	56.148769
51.779785	23.239746	56.116698
50.964355	21.201172	56.081095
49.741211	10.600586	56.041622
47.702637	16.308594	55.997103
47.702637	17.531738	55.946421
45.664062	21.608887	55.888839
49.741211	28.132324	55.824728
57.487793	26.909180	55.758094
59.118652	28.132324	55.694691
57.487793	35.063477	55.636901
58.303223	44.848633	55.584318
54.633789	41.179199	55.535796
53.002930	37.509766	55.489060
52.595215	24.870605	55.442152
57.487793	25.686035	55.395769
62.380371	31.801758	55.353687
59.934082	26.909180	55.318967
55.449219	22.424316	55.290135
55.856934	9.377441	55.264061
53.818359	16.716309	55.239149
56.672363	12.639160	55.215158
55.449219	14.677734	55.192715
59.526367	23.647461	55.172950
62.788086	34.655762	55.158441
62.788086	37.102051	55.151750
61.157227	39.956055	55.152957
62.788086	44.848633	55.161275
53.818359	39.548340	55.174446
52.595215	39.548340	55.187630
51.372070	35.878906	55.197493
52.187500	29.355469	55.203424
47.294922	27.724609	55.204419
48.925781	21.201172	55.198771
52.595215	17.531738	55.187323
50.964355	16.308594	55.172278
56.672363	24.870605	55.155421
53.818359	24.055176	55.138672
54.633789	24.462891	55.122259
53.818359	27.316895	55.105648
53.818359	26.909180	55.088652
53.818359	34.655762	55.071091
57.487793	37.509766	55.053973
63.603516	42.402344	55.040831
55.449219	38.732910	55.033533
58.303223	36.694336	55.029894
51.779785	31.801758	55.027397
52.187500	18.347168	55.023420
50.964355	10.600586	55.016216
53.818359	11.008301	55.006152
55.856934	17.124023	54.995081
53.002930	17.124023	54.984133
52.595215	25.278320	54.972241
56.672363	29.355469	54.959569
58.303223	34.248047	54.948628
61.564941	38.732910	54.942136
64.011230	38.732910	54.942683
64.011230	38.732910	54.952092
67.680664	38.732910	54.971557
63.195801	43.625488	55.001352
56.672363	35.878906	55.037871
59.118652	35.471191	55.076810
59.934082	38.732910	55.117803
57.487793	32.209473	55.161142
53.410645	30.986328	55.204533
51.779785	26.909180	55.244716
50.556641	24.462891	55.279545
55.041504	18.347168	55.309332
62.788086	21.201172	55.338344
59.934082	25.686035	55.371086
62.380371	21.201172	55.408530
58.710937	28.947754	55.449997
56.672363	26.501465	55.493440
56.672363	30.986328	55.536688
56.672363	37.509766	55.579170
59.934082	51.372070	55.621732
57.080078	40.771484	55.665291
54.633789	38.732910	55.708469
54.633789	34.655762	55.749205
54.633789	29.763184	55.786922
49.333496	31.394043	55.820326
55.856934	28.132324	55.848506
52.595215	21.201172	55.872848
50.964355	11.416016	55.893072
49.741211	19.978027	55.907307
53.410645	18.347168	55.915703
52.187500	28.132324	55.919801
56.264648	32.617187	55.921185
56.672363	39.956055	55.921902
58.710937	45.256348	55.923804
57.080078	51.779785	55.927584
56.672363	55.041504	55.932726
53.818359	48.925781	55.937769
53.410645	46.479492	55.940999
59.526367	44.033203	55.943138
60.749512	36.694336	55.947659
59.934082	32.617187	55.956486
60.341797	27.316895	55.969414
62.380371	19.162598	55.986778
60.749512	11.823730	56.009110
59.118652	18.754883	56.035411
55.041504	22.832031	56.063117
55.449219	28.947754	56.089672
51.779785	31.801758	56.113280
54.633789	29.763184	56.132979
57.487793	31.394043	56.150209
59.118652	41.179199	56.167743
60.749512	41.586914	56.187583
59.934082	36.286621	56.210675
62.788086	36.694336	56.237597
55.856934	38.325195	56.267612
54.633789	28.947754	56.297334
55.449219	27.724609	56.324497
48.925781	27.724609	56.347581
50.556641	12.231445	56.363964
50.556641	7.338867	56.373073
51.779785	10.600586	56.375979
49.741211	20.793457	56.373067
58.710937	20.385742	56.366211
57.487793	34.655762	56.359451
57.487793	34.655762	56.354505
53.410645	38.732910	56.349902
55.041504	39.956055	56.343919
53.818359	43.625488	56.336089
55.041504	39.548340	56.326611
59.934082	39.140625	56.317176
60.341797	36.694336	56.310790
55.041504	34.655762	56.307431
55.856934	27.316895	56.304500
56.264648	24.055176	56.301124
53.410645	13.454590	56.297006
53.002930	17.531738	56.290685
58.303223	23.239746	56.282694
61.564941	29.763184	56.276654
61.564941	27.724609	56.275587
64.826660	30.986328	56.280983
60.749512	28.132324	56.293186
61.564941	34.655762	56.310803
60.341797	37.509766	56.332608
60.749512	41.179199	56.358066
59.118652	36.694336	56.386449
58.303223	39.956055	56.416631
59.526367	40.771484	56.447963
59.118652	34.655762	56.480682
56.264648	29.763184	56.514047
57.487793	24.870605	56.546709
51.779785	23.239746	56.577059
51.779785	9.377441	56.602493
52.187500	13.046875	56.621814
50.964355	10.600586	56.635172
56.264648	16.308594	56.643679
52.595215	27.724609	56.649046
51.372070	34.248047	56.650553
54.633789	38.732910	56.647624
59.934082	47.294922	56.643247
60.341797	47.294922	56.641240
57.487793	42.402344	56.642356
55.856934	44.033203	56.644632
55.856934	44.440918	56.646405
55.856934	34.655762	56.647268
55.856934	29.763184	56.647261
58.303223	31.801758	56.647067
55.041504	27.724609	56.647123
52.595215	23.647461	56.645703
52.595215	24.870605	56.640734
47.702637	15.493164	56.630454
54.633789	19.162598	56.614365
53.818359	23.239746	56.594889
55.856934	30.578613	56.574127
56.672363	33.024902	56.553232
58.710937	35.063477	56.533730
55.449219	43.625488	56.516007
53.818359	34.655762	56.498395
53.818359	33.024902	56.479193
55.041504	29.355469	56.458386
50.556641	23.647461	56.435535
53.818359	27.724609	56.409576
49.741211	23.239746	56.380143
49.333496	16.716309	56.346032
45.664062	11.823730	56.305241
48.925781	21.201172	56.256938
50.964355	23.647461	56.202800
50.964355	22.424316	56.145074
52.595215	20.385742	56.084950
51.779785	18.347168	56.023240
55.856934	21.201172	55.961153
56.264648	29.763184	55.900806
55.449219	41.586914	55.843255
55.041504	38.732910	55.788004
56.672363	40.771484	55.735008
53.410645	42.810059	55.684114
50.964355	39.548340	55.633351
49.741211	35.063477	55.580303
51.372070	28.947754	55.524274
46.887207	25.278320	55.464814
45.664062	21.201172	55.399892
45.664062	22.424316	55.328003
49.741211	24.055176	55.250289
52.187500	27.724609	55.169879
49.741211	41.179199	55.088694
55.856934	39.956055	55.007818
55.856934	41.586914	54.929892
55.856934	36.286621	54.856471
58.710937	42.810059	54.788179
57.487793	37.102051	54.726032
53.818359	38.732910	54.668960
53.818359	32.617187	54.614545
53.002930	29.763184	54.561544
50.964355	30.578613	54.508986
50.964355	30.986328	54.455621
44.033203	26.909180	54.399185
44.033203	21.201172	54.336235
48.110352	27.316895	54.266382
52.595215	25.686035	54.193333
58.303223	26.909180	54.122237
60.749512	22.832031	54.057898
57.487793	19.162598	54.002007
56.672363	18.347168	53.952953
52.595215	20.793457	53.908123
55.041504	34.655762	53.865659
55.041504	35.878906	53.825712
55.041504	40.363770	53.788852
59.934082	35.878906	53.756264
57.487793	28.947754	53.729716
55.041504	24.055176	53.708320
51.779785	24.055176	53.689081
51.779785	19.162598	53.669563
53.410645	19.570313	53.649373
53.818359	18.347168	53.629526
55.856934	16.716309	53.611204
50.964355	19.570313	53.594252
55.856934	31.801758	53.577876
51.779785	33.432617	53.562279
50.556641	34.655762	53.546267
55.041504	37.102051	53.529337
57.080078	34.655762	53.514122
58.710937	29.355469	53.503235
56.264648	27.724609	53.497243
59.934082	35.063477	53.496037
57.487793	29.763184	53.500044
53.002930	28.540039	53.507524
53.818359	16.308594	53.515527
53.818359	9.377441	53.523271
48.518066	2.854004	53.529582
48.110352	10.600586	53.531627
45.664062	12.639160	53.527347
49.741211	15.900879	53.516712
49.333496	12.231445	53.501414
49.333496	9.377441	53.482537
51.779785	18.347168	53.460798
51.779785	29.763184	53.437635
53.002930	46.479492	53.414101
53.818359	40.771484	53.391094
51.372070	37.102051	53.368722
52.187500	29.355469	53.346123
50.964355	24.870605	53.322795
53.410645	17.124023	53.299009
53.002930	18.347168	53.275669
48.518066	15.493164	53.252030
48.110352	7.746582	53.225558
51.779785	14.677734	53.195981
49.741211	9.785156	53.164758
50.556641	11.416016	53.132102
50.964355	21.608887	53.098112
53.818359	27.724609	53.064063
53.818359	35.063477	53.031600
54.633789	38.732910	53.001649
55.856934	33.024902	52.974877
54.633789	26.909180	52.951703
53.410645	28.132324	52.931348
53.818359	27.316895	52.912847
53.002930	22.832031	52.895814
48.925781	19.162598	52.878809
52.595215	19.978027	52.860456
50.964355	15.493164	52.841263
46.479492	9.785156	52.820218
44.033203	11.823730	52.794000
39.956055	7.746582	52.759336
45.664062	10.600586	52.715360
48.925781	26.909180	52.665325
53.410645	25.686035	52.613949
53.002930	27.724609	52.564453
53.002930	25.278320	52.517768
55.449219	24.462891	52.474351
56.264648	23.647461	52.435598
53.002930	26.909180	52.401554
49.741211	24.870605	52.369685
45.256348	23.239746	52.336176
45.664062	26.909180	52.298032
45.664062	23.239746	52.254539
43.217773	16.308594	52.205449
43.217773	8.969727	52.149782
39.140625	13.454590	52.086181
38.732910	15.085449	52.012824
44.440918	21.201172	51.930443
48.110352	28.947754	51.843390
55.041504	30.578613	51.757217
55.041504	33.432617	51.676578
59.934082	37.102051	51.604414
63.195801	44.033203	51.543844
62.380371	42.402344	51.497191
55.856934	42.402344	51.462589
53.818359	37.102051	51.435350
50.964355	27.316895	51.411635
53.002930	20.385742	51.389809
50.964355	19.978027	51.369597
47.294922	15.085449	51.349446
43.217773	12.639160	51.325841
45.256348	16.308594	51.296393
48.110352	15.900879	51.262147
49.741211	22.424316	51.225819
52.595215	27.316895	51.189899
53.002930	27.724609	51.156441
54.633789	25.686035	51.126760
55.856934	21.608887	51.102002
53.818359	25.686035	51.082506
49.741211	25.686035	51.066232
49.741211	28.947754	51.050374
45.664062	32.617187	51.032788
48.110352	28.132324	51.012072
41.586914	28.947754	50.986889
45.256348	28.947754	50.955648
44.848633	24.870605	50.918762
43.625488	11.008301	50.876956
48.110352	12.231445	50.830924
47.294922	18.347168	50.782727
49.741211	25.686035	50.733906
47.294922	36.286621	50.684969
49.333496	34.248047	50.635866
49.741211	28.540039	50.587190
45.664062	33.024902	50.538654
49.741211	30.578613	50.489336
47.294922	24.870605	50.439754
46.887207	30.578613	50.389650
48.110352	34.248047	50.338564
41.179199	24.055176	50.285310
46.887207	23.647461	50.228220
43.625488	23.239746	50.167851
43.217773	14.677734	50.104093
37.102051	9.377441	50.034489
40.363770	16.308594	49.956913
44.440918	14.677734	49.872986
44.440918	15.493164	49.786084
48.110352	19.978027	49.698468
46.479492	21.201172	49.611760
46.887207	25.686035	49.526226
48.518066	31.801758	49.442116
49.741211	41.179199	49.360739
53.002930	38.732910	49.283985
52.595215	39.140625	49.213653
53.002930	29.763184	49.150275
50.964355	20.793457	49.093175
51.779785	16.308594	49.041378
49.741211	18.347168	48.994056
51.779785	16.308594	48.950734
47.294922	17.124023	48.910634
44.848633	18.754883	48.871189
44.848633	16.308594	48.829948
49.333496	19.162598	48.787570
48.925781	29.763184	48.746401
45.664062	30.578613	48.706536
47.294922	30.578613	48.666565
43.217773	30.578613	48.625466
51.779785	30.578613	48.583867
53.410645	32.209473	48.545690
55.449219	32.617187	48.514462
52.187500	30.578613	48.490543
50.556641	26.909180	48.472022
51.779785	25.278320	48.457279
46.479492	25.686035	48.444983
44.033203	17.531738	48.431928
39.140625	11.416016	48.414200
43.217773	13.454590	48.389887
44.033203	17.124023	48.360384
50.964355	19.570313	48.329279
50.964355	23.239746	48.300530
49.741211	22.424316	48.275562
55.041504	28.540039	48.254980
55.856934	35.878906	48.241282
56.672363	32.617187	48.236208
52.187500	22.832031	48.238836
53.002930	14.677734	48.246885
54.633789	18.347168	48.259782
52.595215	17.124023	48.277828
50.964355	17.124023	48.299700
50.964355	13.454590	48.323809
46.887207	12.639160	48.348529
49.333496	7.746582	48.372307
48.925781	10.600586	48.395268
50.556641	0.000000	48.418281
51.779785	11.008301	48.442392
53.002930	13.046875	48.468916
52.595215	17.124023	48.498574
53.002930	23.239746	48.531408
57.487793	24.462891	48.568523
58.303223	34.655762	48.612364
57.487793	27.724609	48.663972
55.856934	28.132324	48.722300
52.187500	19.570313	48.784946
48.518066	15.493164	48.848328
50.556641	22.832031	48.909991
49.333496	23.239746	48.969733
45.664062	17.531738	49.026507
48.518066	11.823730	49.078890
50.964355	17.531738	49.128202
49.741211	14.677734	49.176245
51.779785	17.124023	49.223561
55.856934	24.462891	49.271955
55.041504	20.793457	49.323790
52.595215	19.162598	49.378856
48.518066	22.424316	49.434378
45.256348	27.724609	49.486635
46.887207	24.055176	49.533364
47.294922	26.909180	49.574874
52.187500	23.647461	49.613286
52.595215	15.900879	49.651484
50.964355	11.416016	49.690508
49.741211	8.562012	49.729210
50.964355	5.300293	49.766813
48.925781	0.815430	49.803114
50.556641	11.008301	49.837812
49.333496	10.600586	49.870943
50.556641	11.823730	49.902651
53.002930	11.008301	49.933930
47.294922	12.639160	49.964875
45.256348	14.270020	49.992576
49.333496	30.986328	50.015652
49.333496	39.548340	50.035894
52.187500	38.732910	50.055231
51.372070	44.033203	50.074968
48.925781	34.655762	50.094745
51.372070	24.462891	50.113683
53.818359	21.201172	50.133085
53.818359	16.308594	50.154838
47.294922	14.677734	50.177741
43.625488	8.562012	50.197326
47.702637	15.900879	50.211154
43.217773	13.046875	50.219470
40.771484	19.570313	50.220587
40.771484	26.909180	50.212368
41.179199	25.278320	50.194709
44.848633	24.870605	50.169233
42.402344	24.870605	50.137715
46.479492	30.578613	50.101210
48.925781	30.578613	50.062126
53.818359	30.986328	50.024261
57.487793	31.801758	49.991778
50.964355	28.947754	49.965965
47.294922	27.724609	49.943121
48.925781	23.647461	49.919922
42.402344	18.754883	49.894587
46.479492	8.562012	49.865313
44.440918	8.969727	49.832200
46.887207	11.416016	49.796102
43.217773	16.308594	49.756976
44.848633	24.870605	49.714144
46.479492	26.909180	49.668141
48.110352	35.878906	49.620872
50.556641	31.801758	49.574372
53.002930	38.325195	49.531011
50.964355	33.432617	49.492085
51.779785	38.325195	49.457219
52.187500	30.986328	49.426267
49.741211	15.493164	49.398869
48.110352	6.931152	49.373286
47.294922	0.000000	49.347750
51.372070	1.223145	49.322499
49.741211	4.484863	49.299047
49.741211	18.754883	49.277550
47.294922	20.385742	49.256872
45.256348	21.608887	49.235177
51.779785	28.132324	49.212533
49.333496	24.055176	49.191256
55.041504	28.132324	49.173235
56.264648	34.655762	49.161019
55.856934	40.771484	49.156391
54.633789	35.063477	49.158800
51.779785	32.209473	49.166425
52.187500	31.801758	49.177306
47.294922	28.540039	49.189466
44.440918	25.278320	49.199619
48.110352	29.763184	49.206025
45.664062	24.462891	49.209383
46.479492	14.677734	49.209721
43.625488	22.424316	49.206210
42.402344	19.978027	49.197424
45.664062	24.055176	49.183073
43.217773	27.724609	49.164176
44.440918	23.647461	49.140851
44.033203	29.763184	49.113215
42.402344	35.471191	49.081173
45.664062	39.548340	49.044851
41.179199	35.063477	49.004586
42.402344	31.801758	48.959424
43.217773	32.617187	48.909310
44.033203	26.909180	48.855488
45.664062	21.201172	48.799251
42.810059	20.793457	48.741090
44.848633	19.162598	48.680618
43.217773	12.231445	48.617896
44.440918	15.900879	48.553091
39.548340	13.454590	48.485296
41.179199	15.900879	48.412895
44.033203	23.239746	48.336496
44.033203	23.647461	48.258288
43.217773	17.124023	48.178969
44.033203	17.531738	48.098460
47.294922	28.947754	48.017971
45.664062	28.947754	47.939084
45.256348	33.432617	47.861702
43.217773	32.617187	47.784661
43.625488	29.763184	47.706954
39.956055	25.686035	47.627409
39.956055	19.162598	47.544372
37.102051	15.493164	47.456375
39.956055	7.746582	47.362984
44.848633	13.046875	47.266578
47.294922	9.785156	47.171358
46.479492	11.823730	47.079725
47.294922	21.201172	46.992042
44.848633	22.424316	46.907794
48.110352	30.986328	46.826699
46.887207	30.986328	46.749450
50.964355	33.432617	46.677238
44.440918	32.209473	46.610018
44.848633	33.432617	46.545386
46.479492	34.248047	46.482221
43.625488	23.239746	46.420737
44.033203	18.754883	46.359959
42.810059	18.347168	46.299062
42.402344	15.085449	46.237473
42.402344	13.454590	46.174751
40.363770	19.162598	46.110373
44.848633	13.454590	46.044587
41.586914	22.424316	45.978490
45.256348	26.909180	45.912595
43.217773	27.724609	45.847497
41.179199	29.763184	45.782585
49.741211	30.986328	45.718563
48.925781	37.102051	45.659205
49.333496	36.694336	45.606290
44.848633	37.102051	45.558404
43.625488	39.548340	45.512800
43.217773	32.617187	45.467493
44.848633	23.647461	45.422410
45.664062	14.270020	45.378553
45.664062	2.854004	45.336770
44.848633	0.000000	45.297009
46.479492	14.270020	45.259222
43.217773	19.978027	45.223144
44.848633	27.724609	45.187879
46.887207	37.509766	45.153962
44.033203	37.509766	45.122119
44.848633	40.363770	45.091538
48.110352	42.402344	45.062730
49.741211	43.625488	45.038001
52.595215	39.548340	45.019656
48.110352	34.655762	45.008175
43.625488	35.878906	45.000474
40.771484	27.316895	44.992105
33.024902	24.055176	44.978395
35.063477	22.424316	44.955317
34.248047	23.239746	44.922141
38.325195	16.308594	44.880538
36.286621	27.724609	44.832325
36.286621	24.870605	44.777853
36.286621	27.316895	44.716928
37.102051	30.578613	44.650119
37.102051	32.617187	44.578192
40.363770	28.947754	44.502525
39.956055	41.179199	44.424975
41.179199	44.033203	44.346671
38.732910	39.140625	44.267624
43.625488	33.432617	44.188270
40.363770	31.801758	44.109779
33.024902	24.462891	44.029838
30.986328	26.501465	43.943348
32.209473	15.085449	43.848019
38.325195	15.493164	43.746066
37.102051	15.493164	43.641109
37.102051	17.531738	43.534359
36.694336	19.162598	43.425579
39.956055	14.677734	43.315621
42.402344	16.716309	43.206900
41.179199	20.793457	43.101297
45.664062	27.724609	42.999958
40.771484	32.617187	42.903548
41.179199	38.732910	42.810659
36.694336	35.063477	42.718979
35.063477	37.509766	42.625873
38.325195	35.471191	42.530324
33.432617	31.801758	42.432545
31.394043	26.501465	42.330490
29.355469	22.832031	42.221568
29.355469	14.677734	42.104597
27.316895	8.562012	41.978996
31.801758	16.308594	41.845393
29.355469	18.754883	41.705470
35.063477	16.716309	41.561053
35.471191	24.870605	41.414960
37.102051	29.355469	41.269564
35.878906	32.617187	41.125627
36.286621	39.140625	40.983127
40.363770	45.256348	40.843114
35.471191	37.102051	40.706586
36.694336	39.140625	40.572349
35.878906	35.063477	40.439585
34.655762	24.462891	40.307938
34.655762	19.162598	40.176638
28.132324	16.308594	40.043774
30.578613	10.600586	39.906770
28.947754	12.639160	39.765102
39.548340	20.793457	39.621700
40.771484	21.201172	39.482256
44.848633	21.608887	39.351234
42.402344	32.209473	39.230213
39.956055	32.617187	39.118009
37.102051	42.402344	39.011662
32.209473	39.548340	38.907593
33.024902	45.256348	38.802701
33.432617	43.625488	38.696383
30.578613	29.355469	38.588496
30.578613	24.462891	38.477830
31.394043	17.124023	38.364094
29.355469	24.462891	38.247437
29.355469	29.763184	38.127260
27.316895	26.909180	38.002775
26.501465	19.978027	37.873024
24.870605	22.424316	37.736990
28.947754	29.763184	37.595100
29.355469	25.686035	37.449589
30.578613	24.462891	37.302382
33.024902	32.209473	37.155101
35.471191	40.771484	37.010154
35.471191	46.887207	36.869516
43.217773	56.672363	36.735816
39.956055	43.625488	36.612094
37.102051	41.179199	36.497599
38.325195	38.732910	36.389998
35.878906	33.432617	36.288343
34.655762	28.540039	36.191185
34.248047	27.316895	36.097030
33.024902	21.608887	36.004985
26.501465	21.608887	35.912588
30.578613	26.501465	35.817273
30.578613	23.239746	35.719701
34.655762	28.947754	35.622220
37.509766	32.617187	35.527819
33.024902	35.878906	35.437851
35.063477	37.509766	35.351138
32.209473	40.363770	35.266766
36.286621	42.402344	35.184826
37.509766	33.024902	35.107007
36.286621	37.509766	35.034596
39.956055	36.286621	34.968068
31.801758	25.278320	34.906689
28.947754	19.162598	34.846221
23.647461	17.124023	34.781653
31.801758	14.677734	34.711846
36.694336	10.600586	34.641287
41.586914	9.785156	34.576083
35.471191	2.854004	34.518309
29.355469	5.708008	34.464154
25.278320	11.416016	34.407620
29.763184	22.424316	34.346304
31.801758	28.132324	34.282309
33.432617	38.325195	34.218500
33.432617	41.179199	34.156328
27.316895	35.878906	34.094606
28.132324	35.878906	34.030381
25.686035	33.432617	33.962011
24.462891	27.724609	33.888365
25.686035	23.239746	33.808795
25.278320	24.055176	33.723867
22.832031	19.978027	33.633377
23.647461	9.377441	33.536496
20.385742	16.308594	33.432542
24.462891	16.308594	33.321518
24.870605	19.978027	33.205253
26.909180	23.239746	33.085926
26.501465	24.870605	32.964875
27.316895	25.686035	32.842838
31.394043	31.801758	32.721381
37.102051	33.432617	32.604462
35.878906	31.394043	32.495747
39.548340	32.617187	32.396797
34.655762	34.248047	32.307597
32.209473	23.647461	32.225548
24.462891	16.308594	32.145809
26.501465	12.231445	32.064180
27.316895	14.677734	31.980084
31.394043	8.562012	31.895755
33.024902	9.377441	31.814078
36.694336	7.746582	31.737910
32.617187	8.969727	31.668367
30.578613	16.716309	31.603507
28.947754	20.385742	31.540616
31.394043	19.978027	31.478922
31.394043	33.432617	31.419291
28.540039	45.256348	31.361587
25.686035	43.625488	31.303532
24.870605	40.363770	31.242741
30.578613	32.617187	31.179723
28.947754	31.801758	31.117001
28.540039	26.501465	31.055163
26.501465	24.462891	30.993056
26.501465	16.716309	30.929579
27.316895	12.231445	30.864540
33.024902	22.424316	30.800006
32.617187	21.201172	30.739127
34.655762	24.055176	30.683623
37.102051	37.509766	30.634915
36.286621	38.732910	30.594353
38.325195	40.363770	30.562359
36.286621	41.586914	30.538901
36.286621	46.479492	30.523081
32.209473	37.102051	30.512963
31.801758	41.179199	30.506050
28.132324	40.363770	30.499954
33.432617	39.140625	30.494004
28.947754	39.140625	30.488840
31.394043	28.540039	30.484112
31.394043	27.724609	30.479912
33.024902	19.570313	30.477290
39.140625	23.239746	30.478643
38.325195	23.239746	30.487215
39.956055	23.239746	30.504277
37.102051	35.471191	30.529320
38.325195	36.694336	30.561205
35.878906	37.509766	30.598839
36.286621	35.878906	30.641066
41.586914	40.771484	30.688596
36.286621	35.878906	30.742640
37.102051	40.363770	30.801666
35.471191	35.878906	30.863996
32.209473	23.239746	30.927913
34.248047	19.162598	30.991673
31.394043	19.162598	31.054681
31.394043	18.347168	31.115939
25.278320	15.085449	31.173108
28.132324	15.085449	31.223848
27.316895	16.716309	31.268076
27.724609	28.132324	31.306470
33.432617	32.617187	31.340753
32.209473	31.801758	31.373860
33.024902	31.801758	31.406880
34.248047	38.732910	31.440211
33.024902	41.179199	31.474339
32.617187	37.509766	31.508765
35.063477	39.548340	31.543544
35.471191	37.509766	31.579911
33.024902	25.686035	31.617969
33.024902	19.162598	31.656424
30.986328	14.677734	31.694038
32.617187	12.639160	31.730168
32.209473	6.931152	31.765058
34.655762	15.900879	31.799583
30.578613	19.978027	31.833831
31.394043	21.608887	31.866494
31.394043	26.909180	31.896966
35.878906	30.578613	31.926707
36.694336	34.655762	31.958289
35.471191	32.617187	31.992880
39.140625	31.394043	32.030845
34.248047	25.686035	32.072310
34.248047	26.501465	32.115468
32.617187	26.501465	32.158483
32.209473	19.978027	32.200352
28.132324	16.716309	32.239369
29.355469	15.085449	32.273695
33.024902	18.347168	32.304042
31.394043	8.969727	32.332379
32.209473	18.754883	32.359089
36.286621	23.239746	32.385288
33.432617	22.424316	32.412578
37.102051	29.355469	32.441417
38.732910	29.763184	32.473311
38.732910	28.132324	32.509908
39.956055	33.432617	32.551708
37.102051	35.878906	32.598322
37.102051	33.432617	32.648306
37.102051	29.763184	32.700705
39.140625	35.878906	32.755890
34.248047	24.462891	32.813462
33.024902	22.832031	32.870897
31.394043	21.608887	32.925784
33.024902	18.347168	32.977431
29.763184	12.231445	33.025502
35.471191	15.493164	33.070324
37.102051	15.493164	33.114566
36.286621	18.754883	33.160350
36.694336	26.909180	33.207667
38.732910	21.201172	33.256931
36.286621	22.832031	33.308538
40.771484	26.501465	33.362757
40.771484	39.548340	33.421126
41.179199	34.655762	33.484680
42.402344	40.771484	33.553654
38.732910	36.694336	33.627515
36.694336	28.540039	33.703822
31.394043	21.201172	33.778956
32.209473	11.008301	33.849787
28.947754	6.931152	33.914613
28.947754	-2.446289	33.972140
34.248047	0.407715	34.023172
38.325195	0.815430	34.071808
38.325195	9.377441	34.121637
39.956055	24.055176	34.174054
38.325195	39.548340	34.229315
41.179199	46.479492	34.287553
41.179199	50.556641	34.349644
41.179199	55.856934	34.416098
29.763184	50.556641	34.483648
26.501465	58.303223	34.545318
20.385742	57.487793	34.594993
15.085449	59.118652	34.627700
12.639160	55.856934	34.639141
11.008301	53.818359	34.627161
8.969727	51.372070	34.590800
5.300293	51.779785	34.528736
8.562012	62.788086	34.440593
2.854004	64.826660	34.326896
7.746582	70.534668	34.188066
8.969727	84.396973	34.026779
3.669434	95.812988	33.844758
-5.300293	99.482422	33.638315
-8.562012	107.229004	33.401810
-4.077148	124.353027	33.133964
-9.785156	128.430176	32.836478
-5.300293	132.099609	32.510365
-11.008301	129.245605	32.156622
-16.308594	128.022461	31.773660
-19.162598	137.399902	31.358171
-23.239746	145.146484	30.908104
-24.055176	141.477051	30.422391
-27.724609	139.438477	29.900696
-25.686035	154.931641	29.343591
-27.316895	163.085937	28.752943
-33.840332	164.716797	28.128859
-29.355469	176.948242	27.470832
-32.617187	184.694824	26.780878
-31.394043	196.926270	26.060953
-30.986328	202.634277	25.313066
-34.655762	215.273437	24.538840
-42.402344	218.942871	23.736427
-44.440918	227.097168	22.902379
-40.363770	219.758301	22.036970
-41.586914	212.827148	21.143816
-45.256348	216.496582	20.224577
-39.548340	223.427734	19.280651
-42.810059	229.951172	18.315327
-49.333496	226.689453	17.328661
-52.187500	243.813477	16.317624
-50.964355	249.113770	15.281489
-52.187500	255.637207	14.222054
-53.410645	269.091797	13.140847
-55.856934	274.799805	12.038382
-57.487793	281.323242	10.914748
-60.341797	283.769531	9.769834
-55.041504	291.923828	8.605273
-58.303223	297.224121	7.424356
-56.264648	305.786133	6.229279
-56.264648	303.747559	5.022155
-61.157227	296.816406	3.804048
-63.195801	300.078125	2.573629
-59.934082	304.155273	1.331250
-59.526367	311.901855	0.080044
-64.011230	309.863281	-1.178382
-68.903809	321.687012	-2.445914
-67.272949	323.725586	-3.724125
-64.826660	335.957031	-5.010976
-58.710937	342.888184	-6.301403
-59.118652	351.042480	-7.590139
-53.002930	353.488770	-8.872907
-56.264648	366.943359	-10.146381
-52.187500	371.020508	-11.408680
-53.410645	371.428223	-12.658021
-52.595215	382.028809	-13.893035
-51.372070	389.775391	-15.112644
-61.157227	383.659668	-16.317980
-61.157227	384.475098	-17.513243
-63.603516	385.290527	-18.700845
-66.457520	389.775391	-19.881921
-64.011230	384.475098	-21.057025
-64.826660	395.483398	-22.224872
-63.603516	391.406250	-23.384028
-67.272949	401.191406	-24.534203
-58.710937	413.015137	-25.673955
-57.080078	424.023438	-26.798595
-57.487793	415.461426	-27.904627
-57.080078	423.208008	-28.991411
-61.157227	435.847168	-30.059641
-64.011230	428.916016	-31.111820
-60.749512	424.431152	-32.149283
-57.080078	424.431152	-33.169680
-55.856934	420.761719	-34.169605
-58.303223	424.023438	-35.147972
-57.080078	432.585449	-36.105372
-53.410645	424.023438	-37.040785
-58.303223	424.023438	-37.953260
-59.526367	432.177734	-38.844807
-64.011230	431.362305	-39.718542
-63.195801	429.731445	-40.576819
-67.272949	435.847168	-41.421256
-67.272949	442.778320	-42.253521
-67.680664	452.971191	-43.074469
-67.272949	457.863770	-43.883858
-69.719238	459.086914	-44.681896
-69.719238	448.894043	-45.469437
-68.903809	461.533203	-46.246558
-64.826660	457.456055	-47.011416
-67.680664	452.971191	-47.762155
-69.719238	453.786621	-48.499590
-71.757812	458.271484	-49.225906
-70.942383	459.086914	-49.942236
-75.427246	455.825195	-50.649564
-66.457520	457.456055	-51.347341
-63.195801	457.048340	-52.030876
-60.341797	463.164063	-52.695276
-61.564941	461.533203	-53.338675
-64.826660	460.310059	-53.962099
-64.418945	468.056641	-54.567725
-64.011230	472.949219	-55.156259
-55.449219	478.249512	-55.725286
-56.672363	473.356934	-56.270810
-55.449219	471.726074	-56.791392
-55.449219	467.241211	-57.287296
-55.449219	468.464355	-57.758798
-59.118652	472.133789	-58.207471
-56.264648	460.717773	-58.635057
-56.264648	452.971191	-59.041526
-52.595215	452.155762	-59.425695
-53.410645	463.164063	-59.786457
-50.556641	463.164063	-60.123207
-49.741211	462.348633	-60.435182
-48.518066	472.541504	-60.721676
-48.110352	477.026367	-60.982580
-49.333496	480.288086	-61.218563
-47.294922	486.403809	-61.430508
-43.217773	488.442383	-61.617461
-46.887207	481.103516	-61.778644
-40.771484	487.219238	-61.914305
-47.294922	479.880371	-62.024923
-51.372070	464.387207	-62.114408
-54.633789	458.271484	-62.188336
-49.333496	457.048340	-62.248728
-43.625488	455.417480	-62.292705
-41.586914	459.086914	-62.316039
-43.625488	467.648926	-62.317605
-42.810059	461.533203	-62.298709
-45.664062	467.648926	-62.261156
-47.294922	480.288086	-62.207544
-40.363770	481.918945	-62.138443
-37.102051	474.987793	-62.050557
-39.956055	476.618652	-61.942045
-34.655762	483.957520	-61.813206
-29.355469	465.202637	-61.661670
-24.870605	459.494629	-61.483269
-26.909180	467.648926	-61.276194
-30.986328	459.086914	-61.042928
-30.986328	456.640625	-60.787578
-27.724609	464.794922	-60.511628
-30.578613	467.648926	-60.215339
-28.947754	462.348633	-59.900156
-33.024902	455.825195	-59.568232
-30.578613	451.340332	-59.221744
-31.801758	452.155762	-58.861824
-32.209473	452.563477	-58.489565
-32.209473	449.301758	-58.106454
-28.540039	441.962891	-57.712528
-30.578613	453.786621	-57.307299
-24.055176	472.133789	-56.890098
-21.608887	465.610352	-56.458371
-15.085449	461.940918	-56.008518
-14.677734	451.340332	-55.537657
-8.969727	444.409180	-55.043805
-14.270020	434.216309	-54.526812
-11.416016	428.100586	-53.988803
-15.900879	432.585449	-53.432368
-15.900879	431.770020	-52.860532
-19.570313	432.585449	-52.276737
-20.793457	417.907715	-51.684387
-15.900879	426.877441	-51.084813
-14.270020	434.216309	-50.476296
-15.900879	436.254883	-49.858166
-23.647461	422.800293	-49.233971
-19.162598	431.770020	-48.607963
-19.978027	446.855469	-47.980774
-21.608887	438.293457	-47.352795
-19.162598	430.139160	-46.725152
-19.978027	418.315430	-46.097844
-25.686035	408.122559	-45.472802
-22.832031	414.238281	-44.853043
-22.832031	409.345703	-44.238978
-27.316895	396.706543	-43.631424
-22.832031	387.736816	-43.031902
-20.793457	400.783691	-42.438963
-20.385742	401.191406	-41.850578
-18.347168	404.860840	-41.265872
-18.347168	408.122559	-40.684114
-15.900879	400.783691	-40.104605
-12.231445	407.307129	-39.525602
-14.677734	407.714844	-38.945764
-12.639160	404.453125	-38.365522
-9.785156	400.783691	-37.784326
-8.969727	400.375977	-37.200583
-9.785156	396.706543	-36.614055
-14.270020	389.775391	-36.026879
-7.746582	381.213379	-35.440557
-11.823730	382.028809	-34.854489
-7.338867	383.251953	-34.268529
-10.600586	380.397949	-33.682859
-6.931152	382.028809	-33.097654
-11.008301	379.990234	-32.513507
-7.338867	383.251953	-31.931199
-9.785156	381.213379	-31.351043
-5.300293	377.543945	-30.772695
-6.523437	388.144531	-30.195288
-6.931152	389.367676	-29.618959
-4.077148	388.959961	-29.044049
-6.931152	380.397949	-28.470456
-7.338867	371.428223	-27.899579
-3.261719	371.020508	-27.331788
-9.377441	373.466797	-26.767112
-6.523437	371.020508	-26.207396
-2.446289	357.973633	-25.652038
-3.261719	343.703613	-25.098747
-7.746582	340.849609	-24.548546
-8.969727	342.072754	-24.004765
-7.338867	353.081055	-23.469078
-8.154297	359.604492	-22.941358
-6.931152	359.196777	-22.421478
-5.300293	352.265625	-21.908772
-4.077148	363.681641	-21.401954
1.630859	374.689941	-20.898721
4.077148	373.466797	-20.395474
-4.077148	347.373047	-19.892101
-5.708008	335.141602	-19.393207
-8.154297	329.025879	-18.902754
-11.416016	335.141602	-18.423446
-7.338867	337.587891	-17.956566
-4.077148	329.433594	-17.499899
-13.046875	329.841309	-17.053035
-7.338867	331.064453	-16.618355
-4.892578	342.888184	-16.194479
-4.892578	334.733887	-15.778577
1.223145	325.764160	-15.368476
-3.261719	335.957031	-14.962309
3.261719	347.780762	-14.559361
-3.261719	342.888184	-14.159373
-0.407715	338.811035	-13.763597
-5.708008	337.587891	-13.373863
-4.077148	337.180176	-12.991914
-1.223145	340.849609	-12.617584
5.708008	328.210449	-12.247172
0.815430	323.317871	-11.877784
4.077148	317.609863	-11.509656
0.407715	313.940430	-11.143652
-5.708008	302.932129	-10.782737
-5.708008	294.777832	-10.431238
-1.223145	297.224121	-10.089526
5.708008	303.747559	-9.753339
11.008301	307.009277	-9.416569
13.046875	307.009277	-9.074454
8.562012	307.416992	-8.726311
7.746582	305.786133	-8.374814
4.892578	305.786133	-8.022841
6.523437	306.601562	-7.672068
0.000000	300.078125	-7.324416
-2.446289	297.224121	-6.983750
-4.892578	288.254395	-6.653753
-2.446289	280.507812	-6.335574
4.892578	277.653809	-6.026441
1.630859	272.761230	-5.722627
0.815430	269.907227	-5.424211
0.000000	254.821777	-5.132761
0.000000	261.345215	-4.848911
-1.223145	261.345215	-4.573149
0.815430	269.907227	-4.305505
4.484863	273.984375	-4.044181
2.446289	275.615234	-3.787236
1.630859	273.168945	-3.535062
0.815430	271.130371	-3.288888
1.223145	275.615234	-3.049235
0.000000	268.684082	-2.816380
1.630859	265.422363	-2.590368
3.261719	259.306641	-2.370162
1.223145	261.345215	-2.154980
2.854004	259.714355	-1.945036
-0.407715	251.560059	-1.740848
-4.077148	238.920898	-1.544618
-6.523437	227.504883	-1.359621
-5.300293	237.697754	-1.187468
-4.077148	233.212891	-1.027437
1.223145	241.774902	-0.876792
4.077148	251.560059	-0.731409
1.223145	251.560059	-0.589061
0.000000	254.006348	-0.450830
-3.669434	255.637207	-0.319033
-1.223145	254.821777	-0.195121
1.630859	251.560059	-0.077797
5.708008	248.706055	0.036327
7.338867	251.560059	0.150596
0.815430	240.144043	0.265099
2.854004	233.212891	0.377240
-1.223145	224.650879	0.485296
0.000000	220.166016	0.588052
0.815430	215.273437	0.685428
2.854004	226.689453	0.778848
5.708008	228.320312	0.870431
6.931152	227.504883	0.962518
7.338867	232.397461	1.056489
14.270020	232.805176	1.154517
10.600586	235.251465	1.259100
8.969727	228.320312	1.369294
8.154297	225.874023	1.482696
8.562012	224.650879	1.598291
8.154297	231.989746	1.715750
8.562012	227.504883	1.834867
3.669434	216.904297	1.954262
4.077148	211.196289	2.071441
3.669434	203.041992	2.185204
2.854004	200.187988	2.295264
1.223145	198.964844	2.400710
2.854004	199.780273	2.500998
3.669434	201.818848	2.596897
2.446289	209.973145	2.689043
3.261719	214.865723	2.777293
10.600586	210.788574	2.863767
6.931152	209.157715	2.951561
11.008301	207.526855	3.041592
10.600586	214.050293	3.134737
9.377441	206.711426	3.231292
9.377441	203.449707	3.330251
7.746582	199.372559	3.430651
10.600586	190.810547	3.532215
8.562012	191.218262	3.635318
8.154297	196.110840	3.739355
8.154297	194.479980	3.843424
9.377441	189.587402	3.947627
9.377441	189.587402	4.052493
9.377441	183.471680	4.158203
11.823730	184.694824	4.265249
12.231445	186.733398	4.374850
11.823730	184.694824	4.487527
10.600586	184.694824	4.602592
12.639160	188.771973	4.719602
13.046875	199.372559	4.839204
9.785156	193.664551	4.961045
10.600586	193.664551	5.083506
13.454590	187.141113	5.206750
8.562012	177.355957	5.331041
7.746582	172.463379	5.454166
6.931152	176.540527	5.574121
4.077148	168.386230	5.689530
8.562012	159.824219	5.799943
8.562012	161.455078	5.907077
11.416016	163.085937	6.012896
16.716309	161.455078	6.120240
16.308594	159.416504	6.232354
22.832031	160.639648	6.351796
21.201172	164.309082	6.481000
23.239746	175.317383	6.620781
28.132324	181.840820	6.772440
24.870605	173.686523	6.937529
21.201172	172.055664	7.113873
21.201172	167.978516	7.297992
21.608887	164.716797	7.488484
17.124023	163.493652	7.683896
17.124023	158.601074	7.881551
14.270020	148.000488	8.079211
14.677734	141.884766	8.275276
9.377441	143.515625	8.467684
3.261719	137.399902	8.652116
5.708008	136.176758	8.824775
7.746582	144.331055	8.986229
8.154297	147.185059	9.138635
8.969727	151.262207	9.283208
11.008301	153.708496	9.421222
12.639160	157.785645	9.554542
8.562012	144.331055	9.683563
14.270020	145.961914	9.808130
15.900879	143.923340	9.930669
18.754883	135.361328	10.054250
18.754883	136.584473	10.180624
12.231445	140.253906	10.308567
5.708008	139.438477	10.432733
7.746582	133.322754	10.548557
11.008301	132.507324	10.656509
12.639160	128.430176	10.759512
11.823730	129.245605	10.859179
12.231445	132.915039	10.955665
14.677734	136.176758	11.049654
18.347168	133.730469	11.143518
13.454590	139.846191	11.238449
13.046875	145.961914	11.332585
11.823730	139.030762	11.424043
15.493164	140.253906	11.513061
16.308594	132.507324	11.601478
16.308594	121.906738	11.690620
14.677734	124.353027	11.780147
16.308594	121.499023	11.869518
15.493164	117.014160	11.958862
19.570313	108.044434	12.049156
21.201172	116.198730	12.142618
19.570313	113.344727	12.240507
17.531738	117.014160	12.341555
18.347168	119.868164	12.444228
16.716309	120.683594	12.547808
15.900879	124.353027	12.651288
14.677734	130.468750	12.753387
18.347168	141.884766	12.854167
11.008301	139.030762	12.953259
12.231445	134.545898	13.048068
13.454590	123.129883	13.137721
14.270020	100.297852	13.223539
11.416016	92.143555	13.305603
7.338867	90.920410	13.381642
6.931152	90.512695	13.448849
6.931152	100.705566	13.506270
7.338867	111.306152	13.554287
8.562012	105.190430	13.593812
15.493164	102.336426	13.627757
17.531738	112.121582	13.660840
13.454590	108.452148	13.694884
12.639160	101.520996	13.727990
10.600586	102.744141	13.758130
11.416016	107.229004	13.784337
12.231445	103.151855	13.806867
20.793457	103.967285	13.828756
24.870605	97.443848	13.855793
17.531738	87.250977	13.890180
23.647461	84.804687	13.930370
24.462891	83.173828	13.977556
18.754883	76.650391	14.031908
15.900879	70.534668	14.089510
8.562012	74.611816	14.145227
12.639160	75.427246	14.195551
9.377441	78.688965	14.240031
16.716309	86.435547	14.280172
18.754883	88.881836	14.319660
21.201172	88.881836	14.362127
15.900879	90.512695	14.407821
17.124023	92.143555	14.454726
13.454590	84.804687	14.501026
13.454590	85.620117	14.545092
17.531738	84.396973	14.587087
20.793457	77.058105	14.630058
17.124023	75.427246	14.675738
12.231445	71.350098	14.721599
9.785156	61.564941	14.763408
12.231445	53.818359	14.799376
17.531738	64.418945	14.831767
18.754883	58.303223	14.864455
18.754883	60.341797	14.899429
20.385742	69.719238	14.937298
23.647461	72.165527	14.979604
23.647461	68.496094	15.028243
24.462891	71.757812	15.083950
19.162598	77.058105	15.145381
16.308594	56.672363	15.208892
18.754883	54.633789	15.272073
20.793457	53.002930	15.335943
23.647461	46.887207	15.402868
23.647461	49.333496	15.474674
21.608887	54.633789	15.551278
14.270020	57.080078	15.629383
12.639160	55.449219	15.704020
17.531738	62.788086	15.773768
16.308594	61.564941	15.840597
23.647461	65.642090	15.907138
21.201172	65.642090	15.976227
21.201172	61.564941	16.048317
20.793457	66.457520	16.122448
23.647461	67.680664	16.198985
20.385742	67.680664	16.278274
23.239746	56.672363	16.359892
21.608887	59.118652	16.443863
19.162598	58.303223	16.529242
21.201172	56.264648	16.614697
20.385742	61.564941	16.700349
19.570313	55.856934	16.785993
21.201172	52.187500	16.871324
21.608887	45.256348	16.957016
18.754883	53.002930	17.042857
21.201172	52.595215	17.127999
17.124023	55.856934	17.211849
19.978027	59.526367	17.293628
20.793457	60.341797	17.373987
22.424316	64.418945	17.454511
19.570313	67.272949	17.535431
26.501465	67.272949	17.617392
19.570313	60.341797	17.701333
24.055176	63.195801	17.786433
22.832031	53.818359	17.872764
22.424316	44.848633	17.960608
20.385742	43.625488	18.048734
19.570313	47.294922	18.135643
19.978027	44.848633	18.220443
15.900879	35.878906	18.302068
21.608887	31.801758	18.380043
22.832031	31.801758	18.456699
33.432617	33.432617	18.536942
28.132324	45.256348	18.625023
28.540039	47.702637	18.720603
24.055176	45.664062	18.820884
26.909180	47.294922	18.924048
24.462891	52.595215	19.029536
28.947754	50.556641	19.137774
26.501465	55.449219	19.249594
25.278320	44.848633	19.364289
29.355469	34.248047	19.481392
30.578613	36.694336	19.602815
27.724609	41.586914	19.729198
28.132324	41.179199	19.859111
23.647461	28.540039	19.990546
28.132324	21.201172	20.122224
20.793457	22.832031	20.253245
26.501465	36.286621	20.382325
28.947754	48.518066	20.511128
29.355469	50.556641	20.642424
31.394043	50.556641	20.777354
33.024902	52.595215	20.917218
35.063477	60.749512	21.063574
31.394043	58.303223	21.216508
32.209473	57.487793	21.374385
34.655762	51.372070	21.536922
29.355469	40.363770	21.703843
26.501465	37.509766	21.871883
29.355469	38.325195	22.038672
29.355469	35.471191	22.204842
30.578613	31.394043	22.371316
24.462891	28.947754	22.536944
23.647461	21.201172	22.698482
23.647461	24.870605	22.853911
31.801758	39.956055	23.005273
33.024902	45.664062	23.157199
39.140625	39.548340	23.313894
42.402344	45.664062	23.479369
44.848633	45.256348	23.657015
46.887207	40.363770	23.848771
43.625488	38.325195	24.054653
39.956055	38.325195	24.271663
40.363770	35.063477	24.496391
39.140625	28.540039	24.727180
33.024902	24.870605	24.961371
32.209473	21.201172	25.194814
29.355469	17.124023	25.424515
33.024902	18.754883	25.649651
31.394043	12.231445	25.870943
30.578613	10.600586	26.088225
29.355469	16.308594	26.300272
36.694336	19.978027	26.508169
36.286621	19.162598	26.715315
39.956055	25.686035	26.924202
39.140625	27.724609	27.136138
34.655762	26.501465	27.350121
31.801758	24.870605	27.562512
32.209473	15.085449	27.770590
31.801758	11.416016	27.973690
27.724609	9.785156	28.170644
31.394043	9.377441	28.360240
32.209473	-2.446289	28.543683
36.286621	-7.746582	28.723522
36.286621	-3.261719	28.902088
35.878906	-4.077148	29.080214
39.956055	0.000000	29.258591
42.402344	3.669434	29.439697
40.771484	-2.854004	29.625146
42.402344	-3.669434	29.814760
39.956055	1.630859	30.007937
40.363770	18.347168	30.203564
35.471191	21.201172	30.399610
31.394043	19.162598	30.592315
33.432617	18.754883	30.778737
32.209473	15.493164	30.958643
28.947754	8.562012	31.131176
31.394043	5.300293	31.295096
31.801758	0.000000	31.451156
33.024902	-9.377441	31.600727
37.102051	-9.785156	31.745767
33.024902	-4.484863	31.887721
26.501465	6.523437	32.023795
29.355469	8.562012	32.150363
33.024902	8.562012	32.268473
32.209473	8.154297	32.380848
38.325195	15.493164	32.489772
38.325195	19.978027	32.598285
35.471191	9.377441	32.707148
39.956055	10.600586	32.815911
38.325195	14.270020	32.925641
37.509766	5.300293	33.036287
34.655762	0.815430	33.146084
36.286621	3.669434	33.253671
34.248047	-0.815430	33.358604
37.102051	-2.446289	33.461003
35.878906	0.815430	33.561517
35.471191	-2.854004	33.660125
34.655762	1.630859	33.756061
39.140625	11.416016	33.849987
42.810059	7.746582	33.945002
42.402344	14.270020	34.043955
42.402344	18.347168	34.147315
43.217773	27.316895	34.254878
42.810059	16.308594	34.366665
39.956055	14.677734	34.481615
35.878906	8.969727	34.596787
39.956055	4.077148	34.710229
38.325195	-2.446289	34.822544
40.771484	-6.523437	34.934521
39.548340	-5.708008	35.046593
40.363770	-9.377441	35.158852
40.771484	1.630859	35.271386
41.179199	-4.892578	35.384600
41.179199	2.446289	35.498666
42.402344	5.708008	35.613853
41.179199	9.377441	35.730311
45.664062	13.046875	35.848716
45.664062	9.377441	35.970892
45.664062	10.600586	36.097716
43.217773	3.261719	36.228203
46.887207	1.630859	36.361728
39.956055	4.484863	36.497477
36.694336	0.000000	36.631674
35.471191	-10.600586	36.760390
37.102051	-15.085449	36.882669
35.878906	-16.716309	36.998888
34.655762	-21.608887	37.108663
37.102051	-18.754883	37.211851
43.217773	-19.570313	37.311212
48.110352	-15.900879	37.411955
50.964355	-5.300293	37.518839
47.294922	0.407715	37.633294
46.887207	-0.815430	37.753571
43.217773	2.854004	37.877139
45.664062	7.338867	38.002325
44.033203	-5.300293	38.128818
43.217773	-11.416016	38.255998
42.402344	-18.754883	38.382628
41.179199	-25.278320	38.507637
39.956055	-27.316895	38.629789
39.956055	-28.132324	38.748120
39.956055	-26.501465	38.862358
35.471191	-35.063477	38.971391
41.586914	-29.355469	39.074590
47.702637	-29.355469	39.175752
48.518066	-32.617187	39.279898
49.333496	-24.055176	39.389031
50.964355	-22.424316	39.503883
48.925781	-16.308594	39.624609
51.372070	-13.046875	39.750815
53.002930	-8.562012	39.883299
48.110352	-9.785156	40.021852
47.294922	-5.300293	40.163696
45.664062	-13.046875	40.306392
39.956055	-23.239746	40.447181
38.325195	-24.462891	40.582144
37.102051	-27.724609	40.708728
41.179199	-37.102051	40.827178
44.033203	-39.956055	40.940310
45.664062	-33.024902	41.051243
47.294922	-33.024902	41.161997
48.925781	-25.278320	41.274176
49.333496	-12.231445	41.388990
49.741211	-7.338867	41.506950
51.372070	-4.892578	41.628538
47.702637	0.000000	41.753462
52.595215	4.484863	41.881225
48.925781	-4.484863	42.012208
51.372070	-5.708008	42.146126
52.187500	-7.338867	42.283242
48.925781	-14.677734	42.423480
50.964355	-22.424316	42.565588
48.518066	-17.124023	42.708904
45.664062	-28.947754	42.851723
43.217773	-34.655762	42.991132
44.848633	-27.316895	43.125533
47.294922	-30.986328	43.255868
47.702637	-24.462891	43.384006
52.595215	-17.531738	43.512054
50.964355	-17.124023	43.642130
49.741211	-17.531738	43.774112
45.664062	-11.008301	43.905634
47.702637	-2.446289	44.034651
41.179199	-7.746582	44.159426
42.402344	-14.677734	44.277451
44.848633	-11.416016	44.388479
53.410645	-22.832031	44.496565
46.479492	-24.462891	44.605051
47.702637	-30.986328	44.712732
45.256348	-33.024902	44.817711
41.586914	-39.956055	44.918073
39.548340	-39.956055	45.010816
39.956055	-42.810059	45.094258
41.179199	-30.578613	45.168735
45.256348	-18.347168	45.236395
43.217773	-17.531738	45.299403
39.140625	-21.201172	45.356833
37.102051	-18.347168	45.405665
39.140625	-14.677734	45.444630
45.256348	-16.308594	45.476277
47.702637	-19.570313	45.505294
49.741211	-21.201172	45.535198
46.479492	-26.909180	45.566774
47.294922	-28.132324	45.598950
38.325195	-25.278320	45.628879
39.548340	-31.394043	45.652455
40.771484	-39.140625	45.668549
39.140625	-40.771484	45.678018
42.402344	-39.140625	45.681475
44.440918	-39.956055	45.681007
53.410645	-32.209473	45.681079
55.041504	-30.986328	45.687341
54.633789	-25.278320	45.702613
53.410645	-21.201172	45.726364
55.041504	-16.716309	45.757862
50.556641	-24.462891	45.796081
51.372070	-27.316895	45.838962
49.333496	-31.394043	45.884965
45.256348	-32.209473	45.931971
45.664062	-30.986328	45.977316
43.217773	-32.209473	46.019527
39.956055	-40.771484	46.056667
38.732910	-49.333496	46.086249
42.402344	-48.925781	46.108049
41.586914	-48.925781	46.123790
41.586914	-40.771484	46.134265
43.625488	-33.432617	46.140022
44.033203	-36.694336	46.142448
50.964355	-35.878906	46.144261
53.410645	-35.063477	46.149878
52.595215	-27.316895	46.162014
49.741211	-30.578613	46.179824
44.440918	-31.394043	46.199926
41.179199	-38.732910	46.217805
40.771484	-53.410645	46.230329
38.325195	-55.856934	46.236014
36.286621	-56.264648	46.233236
39.548340	-59.526367	46.221525
37.509766	-57.080078	46.201940
41.179199	-51.372070	46.175609
44.033203	-53.002930	46.145007
45.664062	-54.633789	46.113251
47.702637	-51.372070	46.082569
48.518066	-44.848633	46.054659
51.779785	-42.402344	46.031244
52.595215	-33.840332	46.014289
51.779785	-25.278320	46.004588
46.479492	-27.316895	46.000216
44.848633	-33.840332	45.997511
43.217773	-35.878906	45.993720
39.956055	-45.256348	45.986757
40.771484	-47.702637	45.974843
41.586914	-44.848633	45.958001
45.664062	-49.741211	45.938187
44.033203	-48.925781	45.917483
47.294922	-46.479492	45.897022
45.256348	-48.518066	45.877565
46.479492	-48.518066	45.859194
51.372070	-38.325195	45.843271
51.372070	-42.810059	45.832594
44.033203	-41.179199	45.826293
44.440918	-35.878906	45.820429
41.586914	-30.986328	45.812524
44.848633	-35.471191	45.802144
44.848633	-37.102051	45.790375
50.964355	-39.956055	45.779757
45.664062	-45.664062	45.772068
47.294922	-49.333496	45.766436
41.179199	-57.487793	45.760629
41.179199	-64.011230	45.751879
36.694336	-64.011230	45.737542
39.140625	-57.080078	45.716173
41.179199	-64.418945	45.688756
43.217773	-62.788086	45.657843
43.625488	-54.633789	45.625339
43.625488	-44.848633	45.592099
44.848633	-39.140625	45.558620
43.625488	-33.432617	45.525269
48.925781	-30.986328	45.493147
46.887207	-39.956055	45.464160
45.664062	-40.771484	45.438196
48.110352	-40.771484	45.414609
43.217773	-46.887207	45.392996
47.294922	-44.033203	45.372434
44.440918	-47.294922	45.353002
45.256348	-49.333496	45.334456
45.664062	-56.264648	45.316561
48.110352	-57.080078	45.300378
48.925781	-59.118652	45.287453
44.440918	-49.333496	45.277544
45.664062	-45.256348	45.268704
42.402344	-43.625488	45.259502
45.256348	-39.548340	45.249321
43.217773	-39.956055	45.238324
46.887207	-37.509766	45.227202
45.664062	-35.471191	45.217042
50.556641	-33.840332	45.209419
45.664062	-40.771484	45.205190
44.033203	-51.372070	45.202491
45.664062	-59.934082	45.199543
42.810059	-59.526367	45.196039
41.586914	-62.788086	45.190614
41.586914	-66.457520	45.181970
44.440918	-55.449219	45.170690
47.294922	-59.526367	45.159154
42.402344	-57.080078	45.148351
49.741211	-56.264648	45.138364
43.625488	-52.187500	45.130132
44.033203	-48.518066	45.122406
39.956055	-45.256348	45.112707
42.402344	-35.471191	45.099743
37.102051	-40.363770	45.082497
37.102051	-45.256348	45.059040
39.548340	-50.964355	45.028927
37.509766	-54.633789	44.993242
33.024902	-52.595215	44.950668
34.248047	-56.672363	44.898992
35.063477	-57.487793	44.838358
33.432617	-63.195801	44.769559
38.325195	-58.303223	44.693678
38.325195	-53.818359	44.613259
43.217773	-46.887207	44.531162
41.179199	-36.694336	44.449584
45.664062	-36.694336	44.369981
44.848633	-37.509766	44.293952
45.256348	-36.286621	44.222272
44.033203	-31.394043	44.154498
42.810059	-33.432617	44.089668
48.110352	-33.840332	44.028145
51.779785	-42.810059	43.973270
46.479492	-42.810059	43.926729
43.625488	-49.333496	43.885622
39.548340	-53.818359	43.845782
37.509766	-55.449219	43.803768
44.033203	-59.526367	43.759294
45.664062	-54.633789	43.715837
47.294922	-47.294922	43.676396
48.110352	-37.102051	43.642331
47.294922	-35.878906	43.614076
48.925781	-39.140625	43.591611
48.925781	-44.440918	43.575341
50.556641	-41.179199	43.565859
51.779785	-33.024902	43.564044
53.002930	-41.586914	43.570945
51.779785	-44.440918	43.586801
49.333496	-48.518066	43.610226
43.625488	-55.041504	43.637746
43.217773	-50.556641	43.665399
41.179199	-50.556641	43.690900
42.402344	-54.633789	43.713464
45.256348	-61.157227	43.734055
48.925781	-55.856934	43.755527
48.925781	-62.380371	43.780495
48.925781	-53.002930	43.809738
49.741211	-45.256348	43.843246
55.041504	-40.771484	43.882610
51.779785	-46.479492	43.929668
53.818359	-46.887207	43.984233
53.410645	-40.771484	44.046017
51.372070	-37.102051	44.114412
49.333496	-39.140625	44.187335
47.294922	-43.217773	44.262360
48.110352	-52.595215	44.337922
47.702637	-49.741211	44.413702
51.372070	-48.110352	44.490576
47.294922	-53.002930	44.569161
45.256348	-55.449219	44.647586
51.372070	-48.925781	44.725238
47.702637	-50.964355	44.803785
51.372070	-45.664062	44.883747
48.925781	-42.810059	44.965297
47.294922	-42.810059	45.047527
46.887207	-39.956055	45.128713
