82.766113	-67.680664	82.514913
79.912109	-59.526367	82.249261
79.912109	-55.449219	81.993941
80.319824	-53.002930	81.748110
81.135254	-53.410645	81.512024
78.688965	-60.341797	81.285384
80.319824	-59.526367	81.067357
85.212402	-62.788086	80.859281
85.620117	-68.496094	80.664029
87.658691	-69.311523	80.483261
106.413574	-68.903809	80.322615
113.344727	-70.942383	80.193558
124.353027	-67.272949	80.106253
111.713867	-60.341797	80.063185
97.443848	-53.002930	80.054898
91.328125	-48.518066	80.067399
100.705566	-43.625488	80.095236
109.267578	-44.440918	80.143254
116.606445	-38.732910	80.219377
123.537598	-30.578613	80.330178
132.099609	-28.540039	80.481786
148.408203	-30.578613	80.682797
154.523926	-33.024902	80.943185
148.408203	-35.878906	81.265876
148.815918	-45.664062	81.646208
156.970215	-44.440918	82.081919
155.339355	-39.956055	82.574005
167.978516	-39.956055	83.124000
178.986816	-45.664062	83.737806
187.956543	-40.771484	84.423345
194.479980	-31.801758	85.185965
198.557129	-24.055176	86.028227
200.595703	-7.338867	86.950027
215.681152	-4.077148	87.952898
216.904297	-3.261719	89.040894
221.796875	5.708008	90.214905
236.066895	17.124023	91.476442
245.444336	13.046875	92.831457
255.637207	20.793457	94.285644
261.345215	24.055176	95.842298
273.168945	7.746582	97.503924
294.777832	-8.154297	99.277407
302.932129	-36.286621	101.172415
307.824707	-55.449219	103.192695
316.386719	-57.487793	105.337411
327.395020	-44.848633	107.607345
335.141602	-46.887207	110.004505
348.188477	-46.887207	112.530997
366.943359	-46.887207	115.192121
380.397949	-50.556641	117.995796
393.037109	-59.526367	120.947931
399.152832	-62.788086	124.050479
401.191406	-62.788086	127.300433
407.307129	-72.165527	130.691981
415.053711	-75.427246	134.220928
427.692871	-82.766113	137.886337
429.731445	-94.997559	141.687382
437.070312	-103.151855	145.620244
447.670898	-113.344727	149.681991
458.271484	-120.683594	153.872798
465.202637	-129.245605	158.192588
472.133789	-128.837891	162.639223
477.026367	-136.992188	167.209031
479.064941	-147.185059	171.896556
472.133789	-156.970215	176.692074
466.833496	-169.609375	181.581153
459.494629	-172.871094	186.547883
461.125488	-174.501953	191.578708
458.271484	-175.725098	196.663617
460.310059	-189.587402	201.794279
457.863770	-203.041992	206.962910
455.009766	-204.672852	212.160858
456.232910	-209.157715	217.379513
457.456055	-220.981445	222.612667
455.825195	-231.582031	227.854699
448.486328	-242.590332	233.097236
439.516602	-260.122070	238.328107
428.100586	-267.868652	243.532703
419.130859	-271.538086	248.696038
413.830566	-273.984375	253.805451
408.937988	-271.538086	258.851591
401.191406	-276.022949	263.826026
394.260254	-284.584961	268.719601
386.105957	-287.846680	273.523021
377.951660	-288.662109	278.227076
371.020508	-296.408691	282.823080
355.935059	-301.301270	287.301353
343.295898	-313.940430	291.649458
333.103027	-321.687012	295.855445
322.094727	-325.764160	299.909766
319.648437	-335.549316	303.805930
314.755859	-344.111328	307.541548
305.786133	-352.673340	311.114401
296.408691	-350.227051	314.519648
293.962402	-347.373047	317.753381
291.108398	-347.780762	320.815475
289.885254	-364.904785	323.708029
280.100098	-385.290527	326.431721
269.499512	-386.921387	328.983094
258.898926	-385.290527	331.356353
251.560059	-379.174805	333.546792
245.444336	-375.097656	335.552148
240.959473	-379.174805	337.372381
234.843750	-380.805664	339.008397
221.796875	-389.367676	340.459007
209.973145	-388.552246	341.719521
206.711426	-391.813965	342.786732
198.964844	-402.006836	343.661425
194.887695	-403.229980	344.345405
191.625977	-400.783691	344.841562
191.218262	-400.375977	345.154995
183.879395	-408.122559	345.290654
185.102539	-409.753418	345.252812
181.433105	-409.753418	345.047121
179.394531	-408.530273	344.679261
172.055664	-402.006836	344.153005
172.055664	-399.968262	343.471691
161.047363	-403.229980	342.638242
155.339355	-403.229980	341.653145
155.339355	-403.229980	340.518416
149.631348	-409.753418	339.239029
139.438477	-403.637695	337.817206
135.361328	-403.229980	336.252972
132.099609	-404.453125	334.548745
136.992188	-412.199707	332.711161
135.769043	-408.937988	330.749586
129.653320	-409.753418	328.670736
125.168457	-416.276855	326.477397
124.353027	-419.538574	324.172884
113.344727	-419.946289	321.760159
103.151855	-409.753418	319.237984
102.744141	-397.929687	316.605615
98.666992	-387.736816	313.866850
99.074707	-385.290527	311.027245
96.628418	-381.621094	308.092853
93.366699	-372.243652	305.069019
92.143555	-372.243652	301.960295
87.658691	-371.428223	298.771116
87.250977	-377.951660	295.505695
81.135254	-387.736816	292.167919
32.209473	17.124023	288.748401
29.763184	9.377441	285.226485
28.947754	15.493164	281.596160
26.909180	21.201172	277.864547
33.024902	21.201172	274.040476
27.316895	21.201172	270.133335
24.055176	24.055176	266.148744
5.708008	29.763184	262.086367
8.562012	29.355469	257.944250
9.785156	26.909180	253.727360
15.900879	26.501465	249.446516
23.647461	11.416016	245.114683
28.132324	6.931152	240.745577
28.540039	8.562012	236.349977
30.986328	11.008301	231.935737
27.316895	9.377441	227.508768
18.754883	15.900879	223.070764
8.969727	19.162598	218.618857
15.493164	15.493164	214.152676
27.724609	18.347168	209.681633
28.540039	15.900879	205.218999
21.201172	24.055176	200.770795
24.462891	33.024902	196.338258
19.570313	27.724609	191.923836
24.462891	27.316895	187.530917
22.832031	32.617187	183.164000
19.570313	37.102051	178.826067
11.416016	23.239746	174.516078
16.716309	22.424316	170.233548
11.008301	19.162598	165.980875
8.154297	19.162598	161.758818
15.493164	24.462891	157.569356
26.501465	18.347168	153.421412
29.355469	8.562012	149.325923
23.647461	-2.854004	145.287707
10.600586	0.815430	141.302737
14.677734	6.931152	137.365504
13.046875	1.630859	133.476267
11.823730	8.562012	129.636833
11.416016	29.763184	125.847799
12.639160	26.501465	122.110649
14.677734	25.686035	118.428031
19.978027	25.686035	114.804127
13.046875	19.570313	111.241584
5.300293	24.870605	107.737081
7.746582	26.909180	104.286422
14.677734	13.046875	100.891864
3.669434	3.261719	97.555824
-3.261719	8.154297	94.273372
-1.223145	7.746582	91.039532
1.630859	6.931152	87.855498
6.931152	15.493164	84.725786
3.669434	23.239746	81.653902
0.815430	28.132324	78.639381
-0.815430	32.209473	75.680007
0.000000	21.201172	72.774998
0.000000	12.231445	69.924944
-2.854004	16.308594	67.129812
0.815430	12.639160	64.389517
2.854004	7.746582	61.706166
-4.484863	12.231445	59.080105
-3.261719	26.909180	56.508499
1.630859	19.978027	53.991582
5.300293	9.377441	51.533377
0.815430	12.231445	49.135841
2.854004	11.416016	46.797887
3.669434	0.815430	44.519380
-3.261719	4.077148	42.299162
-6.523437	8.562012	40.132641
-12.639160	13.046875	38.014520
-9.377441	24.870605	35.941618
0.000000	27.724609	33.916634
5.708008	14.677734	31.946808
0.000000	17.531738	30.035673
-8.154297	31.801758	28.178936
-9.785156	40.771484	26.369871
-2.446289	34.655762	24.607148
-6.931152	20.385742	22.892769
-4.892578	8.562012	21.226450
0.000000	4.077148	19.608944
4.077148	8.562012	18.043915
2.854004	2.854004	16.533735
0.815430	-8.969727	15.077399
-0.407715	-16.308594	13.672283
-1.223145	-11.823730	12.316152
-3.261719	7.746582	11.006923
-4.892578	12.231445	9.742136
-2.446289	23.239746	8.520354
-4.077148	16.716309	7.341341
-9.785156	16.308594	6.202685
-11.416016	13.046875	5.099898
-5.708008	17.124023	4.031656
-7.338867	19.162598	2.999658
-4.077148	14.677734	2.004846
-4.892578	0.815430	1.047651
-1.223145	-11.008301	0.128766
-1.223145	-3.261719	-0.750865
-7.746582	3.669434	-1.592846
-9.785156	17.531738	-2.401962
-5.708008	23.647461	-3.180565
-9.377441	19.978027	-3.928578
-8.154297	21.608887	-4.647135
-7.746582	24.870605	-5.337031
-11.416016	37.102051	-5.999268
-8.969727	29.763184	-6.635582
-8.969727	25.686035	-7.246157
-7.338867	22.424316	-7.830447
-5.708008	15.493164	-8.387744
-4.077148	15.900879	-8.916973
-3.261719	8.969727	-9.417349
2.446289	5.708008	-9.887297
7.338867	0.815430	-10.323205
14.677734	4.077148	-10.720159
8.562012	6.931152	-11.075974
0.815430	7.338867	-11.395458
0.815430	6.931152	-11.685600
7.338867	10.600586	-11.947746
4.484863	25.686035	-12.180210
10.600586	22.424316	-12.382274
4.077148	22.832031	-12.554352
-7.746582	15.493164	-12.702549
-11.823730	13.046875	-12.836788
-9.785156	5.708008	-12.962274
0.407715	0.000000	-13.076593
0.000000	5.300293	-13.174347
2.446289	13.046875	-13.253080
-5.708008	12.639160	-13.314533
4.484863	15.900879	-13.360389
0.000000	15.493164	-13.389272
-2.446289	6.931152	-13.402242
0.000000	7.338867	-13.401827
2.446289	17.531738	-13.387349
-0.815430	16.716309	-13.358389
0.000000	15.085449	-13.316491
-6.931152	24.870605	-13.264534
-7.338867	26.501465	-13.206562
1.630859	22.832031	-13.142589
8.562012	33.432617	-13.066527
6.931152	29.763184	-12.973435
8.969727	33.432617	-12.862682
8.562012	23.239746	-12.734650
0.407715	11.008301	-12.592077
-8.154297	4.484863	-12.442412
-10.600586	6.931152	-12.293416
-9.785156	16.308594	-12.148537
-5.708008	14.677734	-12.006882
1.223145	13.046875	-11.864279
3.261719	16.716309	-11.715670
2.446289	16.716309	-11.558808
-1.223145	19.978027	-11.395088
-1.223145	33.432617	-11.227134
-7.746582	42.402344	-11.057993
-4.484863	45.256348	-10.890466
-4.077148	43.217773	-10.724550
-5.708008	34.655762	-10.559702
-8.154297	22.424316	-10.397441
-7.746582	19.978027	-10.239426
-4.892578	19.162598	-10.085309
-2.446289	23.239746	-9.932826
-1.223145	20.385742	-9.779708
-8.154297	23.239746	-9.626680
-5.708008	19.162598	-9.476575
-9.377441	22.832031	-9.330919
-5.708008	24.870605	-9.189984
-2.854004	23.239746	-9.051990
-2.446289	17.531738	-8.914380
-2.446289	24.870605	-8.776317
-4.077148	32.617187	-8.638286
-8.154297	32.617187	-8.502361
-14.677734	38.732910	-8.372871
-16.716309	30.986328	-8.254696
-15.900879	24.870605	-8.150017
-15.493164	27.316895	-8.058333
-18.754883	20.385742	-7.979579
-8.969727	22.424316	-7.912290
-1.223145	17.124023	-7.849695
0.407715	11.416016	-7.784581
-5.708008	5.708008	-7.715845
-8.154297	5.300293	-7.647149
-9.785156	15.493164	-7.581885
-9.785156	21.608887	-7.521465
-5.708008	31.801758	-7.465090
-8.969727	39.548340	-7.411352
-8.969727	45.256348	-7.360829
-13.046875	35.471191	-7.315358
-8.562012	35.471191	-7.275720
-11.008301	35.878906	-7.241050
-10.600586	37.102051	-7.211160
-7.338867	39.548340	-7.185437
-3.669434	34.655762	-7.160933
-8.969727	21.201172	-7.136227
-4.892578	11.416016	-7.112103
-5.708008	15.493164	-7.088026
-4.484863	8.969727	-7.063055
-8.154297	5.708008	-7.037791
-12.639160	8.969727	-7.015059
-15.900879	8.154297	-6.998946
-16.716309	19.570313	-6.992274
-12.639160	33.432617	-6.994836
-12.231445	43.625488	-7.004177
-8.154297	42.810059	-7.017624
-11.008301	39.548340	-7.033476
-11.823730	35.471191	-7.052251
-14.270020	21.201172	-7.075618
-9.785156	19.162598	-7.103664
-5.708008	23.647461	-7.133364
-8.154297	20.793457	-7.161934
-8.154297	14.677734	-7.189610
-4.892578	19.570313	-7.216188
-4.077148	11.008301	-7.239763
-11.416016	15.085449	-7.261089
-8.154297	18.347168	-7.283030
-11.008301	18.347168	-7.306498
-5.708008	17.124023	-7.330651
-7.338867	25.278320	-7.353825
-11.008301	26.909180	-7.376468
-12.639160	27.724609	-7.401366
-14.270020	31.801758	-7.430640
-15.493164	26.909180	-7.465666
-20.793457	19.162598	-7.508612
-17.124023	15.493164	-7.561214
-15.085449	14.677734	-7.621909
-15.900879	9.377441	-7.688446
-17.124023	5.300293	-7.760704
-17.124023	11.008301	-7.839205
-18.754883	7.746582	-7.924333
-19.162598	9.377441	-8.016663
-21.201172	14.677734	-8.116949
-19.162598	18.347168	-8.225368
-18.754883	19.570313	-8.340794
-16.716309	27.724609	-8.461505
-20.385742	33.432617	-8.586919
-20.793457	24.055176	-8.718191
-24.462891	27.724609	-8.857059
-20.793457	21.608887	-9.004105
-15.900879	11.416016	-9.156553
-13.046875	11.008301	-9.309716
-14.270020	9.377441	-9.460937
-17.124023	9.785156	-9.610786
-15.900879	9.377441	-9.760669
-17.124023	13.046875	-9.910855
-17.124023	14.270020	-10.061493
-16.308594	14.270020	-10.212512
-12.231445	23.239746	-10.362236
-15.085449	19.162598	-10.508961
-13.454590	25.278320	-10.652667
-14.677734	26.501465	-10.793556
-17.124023	35.878906	-10.932463
-19.570313	27.724609	-11.071581
-21.608887	28.947754	-11.213218
-24.055176	24.055176	-11.359468
-21.608887	13.046875	-11.511145
-15.900879	14.677734	-11.665703
-14.677734	15.493164	-11.818885
-17.531738	11.416016	-11.969201
-15.493164	21.608887	-12.117265
-19.978027	25.278320	-12.263881
-23.239746	9.377441	-12.411637
-22.832031	4.077148	-12.563112
-22.424316	3.261719	-12.718513
-19.978027	8.969727	-12.876535
-19.162598	19.978027	-13.035287
-16.716309	28.540039	-13.192855
-17.124023	27.724609	-13.347735
-19.570313	17.124023	-13.500100
-21.608887	19.162598	-13.651832
-22.424316	16.716309	-13.804728
-25.686035	7.338867	-13.960396
-23.239746	8.562012	-14.119831
-19.570313	9.785156	-14.281303
-19.570313	6.931152	-14.441979
-20.385742	1.223145	-14.600977
-9.785156	7.338867	-14.755850
-11.823730	8.562012	-14.901803
-16.308594	13.046875	-15.038550
-14.677734	22.424316	-15.168828
-13.046875	17.124023	-15.292687
-13.046875	22.424316	-15.409002
-14.677734	24.055176	-15.517993
-14.270020	24.462891	-15.620627
-12.231445	14.677734	-15.716762
-8.562012	16.716309	-15.804450
-11.823730	15.085449	-15.882376
-11.008301	8.154297	-15.951435
-9.785156	8.562012	-16.012063
-11.008301	9.377441	-16.064044
-7.338867	13.046875	-16.107072
-9.785156	13.046875	-16.140543
-16.716309	19.978027	-16.166998
-17.531738	15.493164	-16.191225
-16.716309	15.493164	-16.215334
-13.454590	15.493164	-16.238234
-18.754883	17.124023	-16.259421
-19.978027	24.462891	-16.281199
-24.870605	29.355469	-16.306838
-18.754883	34.655762	-16.337423
-16.716309	30.986328	-16.370232
-18.347168	35.471191	-16.402883
-19.978027	30.986328	-16.436096
-14.677734	18.754883	-16.469706
-11.008301	26.909180	-16.500338
-6.523437	20.793457	-16.523598
-1.223145	16.308594	-16.535081
-4.484863	7.338867	-16.532204
-3.261719	18.347168	-16.515621
-6.931152	17.531738	-16.487147
-10.600586	23.647461	-16.449923
-6.931152	24.870605	-16.406312
-8.562012	22.424316	-16.356113
-11.008301	23.647461	-16.300213
-11.008301	25.686035	-16.240643
-11.008301	30.986328	-16.178275
-13.046875	25.686035	-16.113836
-11.823730	39.140625	-16.048237
-8.969727	42.402344	-15.980744
-12.639160	35.878906	-15.910656
-13.046875	27.724609	-15.839449
-9.377441	22.424316	-15.767464
-2.854004	19.162598	-15.691276
-2.446289	15.900879	-15.606659
2.446289	23.239746	-15.510870
-4.077148	15.085449	-15.403551
-7.746582	19.978027	-15.288445
-11.823730	28.132324	-15.170737
-11.008301	24.055176	-15.053560
-5.300293	27.316895	-14.936158
-3.261719	31.801758	-14.814914
-4.077148	36.286621	-14.687775
-4.892578	22.424316	-14.555247
-5.300293	17.531738	-14.418465
-11.008301	15.900879	-14.279693
-11.008301	14.677734	-14.142271
-9.377441	17.124023	-14.007356
-7.746582	17.124023	-13.873689
-7.338867	13.454590	-13.739962
-13.046875	8.154297	-13.607175
-10.600586	14.677734	-13.477675
-11.416016	15.493164	-13.351877
-8.154297	21.608887	-13.228673
-5.708008	21.201172	-13.105935
-7.338867	19.978027	-12.982057
-4.077148	28.132324	-12.856577
-12.231445	38.732910	-12.730556
-13.046875	40.363770	-12.607794
-12.639160	24.055176	-12.490735
-15.085449	15.493164	-12.379886
-15.085449	11.416016	-12.276260
-7.746582	9.785156	-12.178354
-8.969727	9.377441	-12.082476
-13.454590	2.854004	-11.988530
-15.900879	-3.261719	-11.899845
-14.270020	-2.446289	-11.818312
-11.823730	11.823730	-11.742836
-11.008301	19.162598	-11.671293
-11.416016	16.716309	-11.602616
-17.531738	17.124023	-11.538355
-19.162598	17.531738	-11.482126
-14.677734	25.278320	-11.434908
-14.270020	25.686035	-11.394308
-11.416016	34.248047	-11.357927
-14.270020	24.870605	-11.324755
-16.308594	22.424316	-11.295967
-16.716309	20.385742	-11.273321
-16.716309	14.270020	-11.257314
-15.085449	23.239746	-11.247340
-11.008301	26.909180	-11.241209
-8.562012	16.308594	-11.235539
-5.708008	8.562012	-11.227209
-1.630859	11.416016	-11.213136
-3.669434	2.854004	-11.191239
-9.785156	11.823730	-11.163502
-8.562012	16.716309	-11.133645
-7.746582	17.124023	-11.102546
-9.377441	27.724609	-11.069973
-20.385742	28.540039	-11.039561
-18.347168	31.394043	-11.016920
-16.716309	15.493164	-11.003114
-15.900879	23.239746	-10.996151
-11.416016	19.162598	-10.993694
-8.969727	16.716309	-10.992327
-4.892578	19.162598	-10.988469
-4.892578	22.424316	-10.979451
-5.708008	17.124023	-10.964660
-8.969727	12.231445	-10.945658
-8.969727	22.424316	-10.924585
-7.338867	24.462891	-10.901984
-5.300293	25.686035	-10.876556
-3.261719	33.024902	-10.846420
-5.708008	33.432617	-10.810859
-4.077148	29.355469	-10.770477
-9.785156	33.432617	-10.726819
-9.785156	36.694336	-10.682651
-11.416016	28.947754	-10.639969
-11.416016	28.947754	-10.599609
-9.377441	26.909180	-10.561399
-4.892578	20.793457	-10.523035
-1.223145	22.832031	-10.480707
-8.562012	19.978027	-10.433461
-5.708008	14.270020	-10.383712
-8.969727	13.046875	-10.332911
-7.338867	19.570313	-10.281695
-11.416016	18.347168	-10.231206
-12.231445	24.055176	-10.183393
-15.085449	21.201172	-10.140435
-11.416016	28.540039	-10.102905
-8.969727	29.763184	-10.068778
-7.746582	32.209473	-10.035363
-7.746582	36.694336	-10.001378
-14.270020	35.471191	-9.968278
-14.677734	34.655762	-9.939592
-11.416016	37.102051	-9.916220
-13.046875	24.870605	-9.896768
-11.008301	15.085449	-9.880543
-8.969727	10.600586	-9.866239
-7.746582	9.377441	-9.851856
-6.931152	15.493164	-9.836019
0.000000	31.394043	-9.816240
-1.223145	32.209473	-9.789186
-2.854004	31.801758	-9.754464
-7.338867	24.055176	-9.714814
-7.746582	27.316895	-9.673394
-14.270020	29.763184	-9.633432
-12.639160	38.732910	-9.598011
-15.900879	39.140625	-9.568676
-9.785156	24.870605	-9.544860
-14.270020	20.385742	-9.525160
-9.785156	15.085449	-9.508983
-9.785156	10.600586	-9.495007
-4.077148	13.046875	-9.480470
-6.523437	23.647461	-9.463056
-5.708008	23.239746	-9.442485
-4.892578	21.201172	-9.418923
0.815430	25.686035	-9.390387
-8.154297	25.278320	-9.356276
-9.785156	18.754883	-9.320520
-11.416016	24.055176	-9.286872
-11.008301	31.801758	-9.256451
-18.754883	34.248047	-9.231391
-21.201172	32.617187	-9.216081
-18.754883	30.986328	-9.212773
-15.085449	22.424316	-9.219320
-11.008301	23.239746	-9.231627
-11.823730	24.870605	-9.246528
-8.154297	21.608887	-9.262285
-4.892578	25.278320	-9.276270
-4.484863	23.239746	-9.285764
-7.746582	23.647461	-9.290748
-6.523437	17.531738	-9.292706
-4.892578	19.162598	-9.291558
-6.523437	14.270020	-9.286696
-4.484863	21.201172	-9.278187
-8.969727	23.647461	-9.266741
-8.154297	24.870605	-9.254109
-5.708008	32.209473	-9.240466
-4.077148	29.763184	-9.223943
-5.708008	34.655762	-9.203618
-11.823730	24.055176	-9.181719
-14.677734	28.947754	-9.162731
-17.531738	27.316895	-9.150399
-11.823730	21.201172	-9.145183
-14.270020	16.308594	-9.145160
-14.270020	12.639160	-9.149880
-11.823730	6.523437	-9.159124
-9.377441	5.300293	-9.170749
-7.338867	11.416016	-9.182172
-7.746582	12.231445	-9.191782
-7.746582	14.677734	-9.199332
-8.969727	20.793457	-9.205334
-8.969727	26.909180	-9.210495
-13.046875	28.132324	-9.216241
-15.085449	37.509766	-9.225215
-14.270020	33.024902	-9.239191
-11.008301	30.578613	-9.257177
-11.008301	24.870605	-9.277045
-9.377441	25.278320	-9.297404
-11.416016	20.793457	-9.317888
-7.746582	19.570313	-9.338148
-5.708008	19.978027	-9.356247
-11.823730	14.270020	-9.371835
-11.008301	11.416016	-9.387471
-16.308594	13.454590	-9.405709
-13.046875	8.562012	-9.428124
-8.154297	-0.815430	-9.452898
-6.523437	0.407715	-9.476041
-8.969727	6.523437	-9.496105
-9.377441	11.823730	-9.514170
-7.338867	16.308594	-9.530631
-8.154297	24.055176	-9.544792
-8.969727	24.055176	-9.556851
-12.231445	32.209473	-9.568389
-16.308594	31.394043	-9.582416
-11.416016	23.239746	-9.600519
-10.600586	24.870605	-9.620781
-8.154297	17.531738	-9.640725
-4.892578	15.900879	-9.657990
-8.562012	21.201172	-9.671286
-8.154297	24.870605	-9.681742
-10.600586	19.162598	-9.690870
-12.639160	23.239746	-9.700433
-13.454590	23.239746	-9.712329
-8.969727	23.239746	-9.726226
-7.746582	23.239746	-9.739555
-0.407715	30.578613	-9.748579
0.407715	35.471191	-9.749093
-8.969727	28.132324	-9.741589
-13.046875	34.655762	-9.732222
-13.454590	27.724609	-9.725798
-10.600586	22.424316	-9.722727
-7.338867	21.201172	-9.720610
-4.892578	14.270020	-9.716300
-8.154297	11.416016	-9.708617
-8.969727	9.785156	-9.699006
-9.785156	20.793457	-9.689064
-11.416016	20.385742	-9.679888
-9.785156	19.978027	-9.672096
-12.231445	26.909180	-9.665846
-11.008301	30.578613	-9.661611
-16.716309	35.063477	-9.660804
-21.608887	38.732910	-9.667233
-23.647461	44.033203	-9.685168
-23.647461	36.694336	-9.716426
-29.355469	24.055176	-9.762406
-23.647461	19.978027	-9.823890
-21.608887	18.754883	-9.898077
-15.085449	18.754883	-9.980030
-8.969727	21.201172	-10.063741
-11.416016	12.231445	-10.144758
-11.416016	9.377441	-10.222797
-7.746582	10.600586	-10.297590
-9.785156	11.008301	-10.367813
-6.931152	19.570313	-10.432956
-8.154297	24.055176	-10.492538
-16.716309	22.832031	-10.548892
-15.085449	19.162598	-10.606495
-17.531738	23.239746	-10.667265
-18.347168	32.209473	-10.732066
-13.454590	26.909180	-10.800432
-7.338867	21.608887	-10.868168
-3.261719	16.716309	-10.929662
0.815430	18.347168	-10.980312
-5.708008	19.978027	-11.019058
-11.008301	22.424316	-11.050146
-15.085449	20.793457	-11.079459
-13.046875	17.124023	-11.110047
-15.900879	25.686035	-11.142570
-12.231445	16.308594	-11.176905
-8.562012	16.308594	-11.210792
-7.746582	22.424316	-11.241110
-12.231445	23.239746	-11.267775
-13.046875	26.501465	-11.293280
-11.416016	36.286621	-11.318829
-15.085449	46.479492	-11.344715
-13.454590	42.810059	-11.371967
-9.785156	46.887207	-11.399636
-10.600586	35.878906	-11.425533
-10.600586	27.316895	-11.449176
-14.677734	26.909180	-11.471926
-17.124023	19.162598	-11.496586
-19.570313	11.008301	-11.526042
-19.162598	4.077148	-11.561865
-14.270020	13.046875	-11.602874
-7.746582	15.493164	-11.644398
-6.931152	18.754883	-11.681445
-5.300293	29.763184	-11.711607
-11.008301	28.947754	-11.735594
-10.600586	35.471191	-11.756123
-8.154297	38.325195	-11.773972
-13.046875	40.363770	-11.789137
-13.454590	27.724609	-11.803758
-13.046875	22.832031	-11.819237
-11.416016	15.493164	-11.834983
-9.785156	6.523437	-11.849575
-12.639160	5.708008	-11.862515
-9.785156	2.854004	-11.874185
-4.484863	2.854004	-11.882489
-5.708008	5.300293	-11.884357
-1.630859	15.085449	-11.878259
11.008301	18.754883	-11.859420
9.377441	18.754883	-11.821155
0.000000	24.462891	-11.764384
-2.446289	25.686035	-11.696004
-4.077148	25.686035	-11.620788
-4.484863	25.686035	-11.540734
-11.008301	24.462891	-11.458499
0.000000	19.162598	-11.374912
-3.261719	17.124023	-11.286910
-13.046875	23.647461	-11.196176
-21.201172	36.286621	-11.111070
-23.647461	39.956055	-11.038923
-15.493164	34.655762	-10.980509
-17.531738	22.424316	-10.932161
-14.270020	15.493164	-10.891547
-10.600586	19.162598	-10.856216
-8.969727	14.270020	-10.822752
5.708008	11.008301	-10.785431
28.540039	5.708008	-10.730328
36.694336	6.931152	-10.640314
23.647461	10.600586	-10.510212
0.815430	14.677734	-10.352684
-16.308594	19.162598	-10.189059
-24.055176	27.724609	-10.036817
-24.055176	36.694336	-9.904167
-16.308594	38.732910	-9.790363
-2.854004	31.801758	-9.687065
-8.969727	25.686035	-9.586409
-11.416016	20.793457	-9.488703
-16.308594	17.124023	-9.398091
-10.600586	11.416016	-9.316063
-2.446289	23.647461	-9.238458
-4.892578	24.055176	-9.160017
-14.677734	32.617187	-9.082575
-16.716309	33.432617	-9.012486
-17.531738	34.655762	-8.953347
-14.270020	38.732910	-8.904830
-4.077148	36.694336	-8.862329
8.562012	32.209473	-8.816083
10.600586	24.870605	-8.756457
3.669434	39.548340	-8.681549
-14.677734	39.140625	-8.600057
-26.909180	39.956055	-8.527037
-13.046875	37.509766	-8.469787
-4.077148	23.239746	-8.421225
2.854004	16.308594	-8.370835
17.531738	8.154297	-8.308899
26.501465	10.600586	-8.224117
24.055176	12.231445	-8.109687
0.815430	24.870605	-7.972108
-5.708008	34.655762	-7.827138
-8.969727	40.363770	-7.685653
-11.823730	45.664062	-7.551822
-15.085449	44.440918	-7.428651
-11.823730	45.664062	-7.317394
-6.931152	40.363770	-7.215484
-8.969727	41.179199	-7.119714
-11.008301	34.655762	-7.030228
-5.708008	19.978027	-6.947049
-0.815430	17.124023	-6.866445
-6.931152	11.008301	-6.786026
-4.077148	0.815430	-6.707048
2.854004	-0.815430	-6.627814
6.931152	6.523437	-6.542957
10.600586	7.338867	-6.447895
4.484863	9.785156	-6.341797
-3.261719	26.501465	-6.229559
-6.523437	29.763184	-6.118110
-7.338867	33.432617	-6.011495
-4.077148	40.771484	-5.910034
-5.300293	39.956055	-5.812423
-0.815430	28.947754	-5.717198
1.630859	28.540039	-5.621673
13.046875	25.686035	-5.520500
18.347168	17.531738	-5.406008
21.201172	17.531738	-5.272387
22.424316	8.154297	-5.117433
20.385742	1.630859	-4.941418
15.493164	-4.892578	-4.747516
17.531738	4.484863	-4.539311
19.162598	-4.892578	-4.317457
18.347168	5.300293	-4.081627
15.493164	13.454590	-3.833452
8.562012	22.424316	-3.577286
7.338867	26.909180	-3.318472
16.308594	25.278320	-3.057511
24.870605	32.617187	-2.788133
26.501465	18.347168	-2.503720
26.909180	23.239746	-2.202039
28.132324	19.570313	-1.883225
25.278320	13.046875	-1.548390
22.424316	18.754883	-1.200539
18.347168	22.424316	-0.843949
17.124023	23.239746	-0.482601
20.385742	22.832031	-0.117950
24.055176	29.355469	0.251829
21.608887	24.462891	0.628257
26.501465	26.909180	1.011601
25.278320	26.501465	1.402752
20.385742	25.686035	1.800301
15.493164	32.209473	2.199364
14.677734	40.363770	2.595384
15.085449	46.479492	2.986476
19.570313	34.655762	3.373629
25.278320	35.878906	3.760580
23.239746	32.209473	4.150571
17.531738	27.724609	4.541984
18.347168	23.647461	4.931023
15.493164	22.424316	5.315567
18.754883	24.870605	5.694986
21.201172	19.978027	6.070721
30.578613	31.801758	6.447149
36.694336	26.909180	6.831019
36.694336	27.724609	7.227267
31.394043	28.540039	7.635130
29.763184	33.024902	8.050439
35.471191	40.363770	8.471672
40.771484	43.217773	8.902080
48.925781	41.586914	9.347221
53.002930	27.724609	9.812707
57.487793	29.355469	10.302590
44.033203	28.947754	10.815142
32.209473	30.986328	11.339801
34.248047	34.655762	11.866255
36.694336	27.724609	12.392479
44.033203	24.870605	12.921678
44.848633	21.201172	13.457874
50.556641	25.278320	14.004042
51.372070	18.347168	14.562584
60.749512	23.239746	15.136743
68.496094	28.540039	15.732384
69.311523	28.947754	16.354655
68.903809	37.102051	17.004052
56.264648	44.440918	17.675343
51.779785	50.556641	18.358905
59.934082	38.732910	19.049929
69.311523	37.102051	19.752922
77.465820	33.432617	20.475811
88.474121	27.724609	21.226576
92.143555	22.832031	22.012053
87.250977	17.124023	22.833380
70.942383	12.231445	23.682177
64.826660	9.377441	24.544848
72.573242	19.570313	25.414396
87.250977	23.239746	26.295914
94.997559	26.909180	27.199716
88.474121	30.578613	28.130053
78.688965	35.063477	29.080783
72.165527	31.801758	30.041415
71.757812	36.694336	31.004385
77.058105	42.402344	31.968041
86.435547	34.655762	32.936479
92.958984	36.694336	33.916498
93.366699	36.286621	34.912542
88.474121	26.909180	35.923479
91.735840	27.724609	36.945967
91.735840	28.947754	37.978836
104.375000	23.239746	39.024707
110.898438	20.385742	40.090246
110.490723	32.617187	41.180083
107.229004	32.617187	42.292614
107.636719	32.209473	43.423928
114.975586	34.655762	44.573271
113.752441	39.548340	45.742258
117.421875	46.887207	46.931022
120.683594	51.372070	48.139879
122.722168	49.741211	49.369863
121.091309	37.509766	50.620223
117.421875	37.509766	51.887436
120.275879	30.578613	53.167802
125.168457	27.724609	54.461199
127.207031	32.617187	55.769533
126.799316	38.732910	57.093002
123.945312	34.655762	58.429101
121.906738	34.248047	59.773712
124.760742	34.655762	61.123966
131.284180	32.617187	62.480865
134.545898	29.355469	63.847716
129.653320	29.763184	65.224774
134.545898	31.801758	66.609701
139.438477	27.724609	68.003256
140.661621	33.432617	69.407761
140.253906	34.655762	70.823064
141.884766	29.355469	72.247725
140.253906	32.617187	73.680143
136.584473	30.578613	75.117070
137.399902	26.501465	76.554650
142.700195	26.909180	77.992199
146.777344	25.278320	79.432278
145.146484	24.870605	80.876365
147.592773	32.617187	82.323618
142.700195	53.410645	83.771945
136.176758	44.440918	85.216133
136.584473	40.363770	86.650247
135.361328	37.509766	88.071416
137.399902	42.402344	89.478734
141.477051	48.110352	90.873169
148.408203	59.526367	92.258339
155.339355	59.934082	93.639741
155.747070	51.372070	95.021665
145.961914	53.002930	96.402098
139.846191	48.110352	97.773017
132.507324	35.878906	99.125702
131.691895	30.986328	100.453881
134.953613	21.201172	101.755770
141.477051	12.639160	103.034405
141.477051	14.677734	104.293780
135.769043	18.754883	105.533659
130.876465	15.493164	106.749338
131.691895	17.531738	107.936782
132.915039	24.055176	109.095486
133.730469	17.124023	110.226606
129.653320	36.694336	111.329882
128.837891	59.118652	112.403275
125.576172	60.749512	113.444654
120.275879	31.801758	114.451056
122.722168	27.724609	115.420010
119.460449	35.878906	116.351230
113.752441	45.256348	117.242877
113.752441	56.672363	118.091952
117.421875	55.449219	118.898957
116.606445	48.925781	119.666663
117.421875	30.578613	120.396794
120.275879	27.316895	121.091249
112.937012	17.531738	121.750702
104.782715	18.347168	122.370798
100.705566	33.024902	122.945385
109.267578	41.586914	123.473886
113.752441	24.055176	123.962441
120.683594	-4.892578	124.418772
116.606445	20.385742	124.847609
103.151855	46.887207	125.245890
84.396973	53.818359	125.601516
79.096680	55.041504	125.901266
78.688965	40.363770	126.139538
69.311523	24.870605	126.314798
77.058105	38.732910	126.426719
80.319824	61.564941	126.480515
80.727539	55.041504	126.482620
77.873535	18.347168	126.435696
64.826660	-17.531738	126.337194
70.942383	-15.900879	126.183557
65.642090	8.154297	125.975838
72.573242	24.870605	125.717348
76.242676	26.501465	125.413874
68.496094	25.278320	125.069485
77.873535	32.209473	124.685756
83.581543	27.316895	124.269262
73.796387	32.617187	123.824820
60.341797	40.363770	123.346985
58.710937	43.625488	122.827705
58.710937	37.102051	122.265014
62.380371	20.385742	121.662004
59.934082	12.639160	121.022422
56.672363	17.124023	120.347420
64.011230	17.124023	119.638882
73.388672	8.154297	118.904535
76.650391	9.377441	118.154031
63.603516	22.424316	117.389642
48.110352	34.655762	116.602731
48.925781	44.440918	115.783794
55.856934	42.402344	114.933321
55.041504	38.325195	114.057277
47.294922	31.801758	113.157098
53.410645	33.024902	112.232146
55.041504	27.724609	111.286122
48.925781	20.793457	110.321832
43.217773	10.600586	109.336832
39.140625	15.900879	108.327421
38.325195	21.608887	107.291908
42.402344	9.785156	106.232136
44.033203	16.308594	105.152674
40.771484	21.201172	104.056621
39.140625	22.424316	102.944165
28.947754	26.501465	101.812827
27.724609	28.947754	100.658548
33.024902	30.986328	99.481652
38.732910	34.248047	98.288363
39.956055	34.655762	97.085390
37.102051	41.179199	95.875828
35.471191	44.848633	94.659641
23.647461	38.732910	93.433694
24.870605	28.947754	92.193399
25.278320	16.308594	90.938352
27.724609	2.446289	89.671719
22.424316	2.854004	88.395356
14.677734	5.708008	87.106868
16.716309	13.454590	85.803231
28.947754	11.416016	84.488751
28.540039	13.046875	83.172156
30.578613	17.124023	81.858458
24.055176	26.909180	80.548157
24.055176	35.063477	79.239584
27.316895	44.033203	77.933180
29.763184	44.440918	76.632574
27.316895	30.986328	75.340370
36.286621	19.162598	74.059259
36.286621	4.077148	72.794153
40.363770	5.300293	71.549086
42.402344	17.124023	70.327133
40.771484	19.162598	69.130246
30.578613	17.124023	67.955547
21.201172	13.046875	66.795018
25.686035	13.046875	65.642811
35.063477	2.854004	64.502115
45.256348	-3.261719	63.382390
51.372070	-3.669434	62.293287
53.002930	1.223145	61.240882
44.440918	12.639160	60.224831
43.217773	26.909180	59.240165
35.471191	29.763184	58.281568
28.947754	33.432617	57.342763
22.832031	33.432617	56.416769
24.462891	31.394043	55.499481
19.162598	26.909180	54.589326
31.394043	19.570313	53.687795
45.256348	11.823730	52.804118
50.556641	8.969727	51.950304
42.810059	8.562012	51.130288
32.617187	22.424316	50.338046
28.540039	27.724609	49.564688
21.201172	33.432617	48.803427
20.385742	37.509766	48.049371
18.754883	35.878906	47.300202
24.055176	28.540039	46.556808
35.471191	31.801758	45.825063
38.325195	27.724609	45.113347
43.625488	22.832031	44.427392
44.440918	28.132324	43.770500
48.110352	22.424316	43.144827
46.479492	16.716309	42.551332
46.887207	16.308594	41.989393
43.217773	17.531738	41.456993
33.024902	6.931152	40.948855
29.355469	2.854004	40.457130
21.201172	13.046875	39.974844
17.531738	22.832031	39.495863
15.900879	26.501465	39.016044
8.562012	29.763184	38.532179
9.785156	36.286621	38.040998
10.600586	49.333496	37.542277
10.600586	58.303223	37.037632
7.338867	59.934082	36.527219
16.308594	38.732910	36.012477
29.763184	22.832031	35.501535
33.024902	20.385742	35.005038
23.647461	26.909180	34.525639
19.978027	27.316895	34.058032
23.647461	15.900879	33.598748
13.454590	7.338867	33.146177
4.892578	2.854004	32.693852
4.077148	8.969727	32.234846
12.639160	10.600586	31.769516
16.308594	26.501465	31.303885
21.608887	36.286621	30.844026
21.201172	33.024902	30.393801
23.239746	29.355469	29.954961
20.385742	27.316895	29.527666
37.102051	42.402344	29.115268
41.179199	35.471191	28.726629
40.771484	28.947754	28.367507
32.209473	12.231445	28.035550
39.140625	-17.531738	27.727091
38.325195	1.223145	27.442567
38.325195	45.256348	27.182586
35.471191	31.801758	26.945343
21.608887	21.201172	26.724917
25.278320	28.540039	26.513710
18.754883	32.617187	26.308098
20.385742	30.578613	26.106008
33.024902	12.231445	25.909957
44.848633	-6.931152	25.730051
45.256348	-5.708008	25.575388
39.140625	6.931152	25.446699
35.471191	24.870605	25.338873
25.686035	24.870605	25.244973
15.493164	34.248047	25.155685
7.338867	31.394043	25.060825
11.823730	27.724609	24.954962
22.424316	22.832031	24.841706
35.471191	17.124023	24.731684
39.140625	9.377441	24.635468
32.617187	9.785156	24.556176
24.055176	19.978027	24.488412
24.055176	24.870605	24.425513
25.278320	29.763184	24.365396
20.385742	31.394043	24.307356
7.746582	37.102051	24.245790
5.300293	50.556641	24.172355
12.639160	40.363770	24.084988
15.493164	41.586914	23.988375
17.531738	31.801758	23.886999
16.716309	34.655762	23.782790
4.077148	31.394043	23.672772
-5.300293	18.754883	23.548005
-9.785156	12.231445	23.399866
-14.270020	2.446289	23.223569
-15.900879	-14.677734	23.016615
-9.377441	-16.308594	22.780287
-0.407715	8.969727	22.521522
3.261719	24.462891	22.248996
12.231445	31.394043	21.970262
15.493164	44.033203	21.692425
16.308594	50.556641	21.420021
18.754883	55.856934	21.155019
22.832031	67.680664	20.899932
22.424316	55.041504	20.657255
13.046875	36.286621	20.425076
12.231445	29.355469	20.197914
19.978027	29.355469	19.974924
19.570313	22.424316	19.759900
17.124023	23.239746	19.553884
8.154297	28.132324	19.352937
-7.338867	32.209473	19.147615
-15.900879	29.763184	18.925587
-9.377441	20.793457	18.680989
-2.446289	9.377441	18.418099
7.746582	10.600586	18.146055
14.677734	17.124023	17.874554
16.308594	28.947754	17.610605
15.900879	35.878906	17.356712
5.708008	41.179199	17.110225
3.669434	39.140625	16.865067
5.708008	35.878906	16.618224
12.639160	47.294922	16.372388
17.531738	39.140625	16.133234
16.716309	24.870605	15.904886
21.608887	9.377441	15.689238
24.462891	0.000000	15.489047
28.132324	-0.407715	15.307570
28.947754	-1.223145	15.147043
23.239746	9.377441	15.006577
12.639160	8.562012	14.879842
6.931152	17.124023	14.757781
0.000000	25.686035	14.632705
0.815430	30.986328	14.499957
11.823730	32.617187	14.361523
8.562012	43.217773	14.222946
-0.407715	50.556641	14.083201
11.008301	37.102051	13.939918
6.931152	23.647461	13.795977
-2.854004	27.316895	13.649845
-5.708008	33.432617	13.494815
7.338867	36.694336	13.330809
20.793457	35.878906	13.168046
21.201172	25.686035	13.017244
19.978027	15.493164	12.881445
14.677734	18.347168	12.758187
8.562012	14.270020	12.642316
12.231445	20.385742	12.529979
22.424316	35.063477	12.424132
19.570313	38.732910	12.330162
20.385742	32.209473	12.249022
11.823730	18.754883	12.177644
11.823730	11.823730	12.111379
24.462891	-4.892578	12.051134
31.394043	-6.523437	12.005161
25.278320	1.223145	11.978217
17.124023	12.231445	11.965934
15.493164	26.909180	11.961341
6.523437	28.132324	11.958739
1.630859	27.316895	11.951615
-6.523437	22.832031	11.933112
-6.931152	28.947754	11.898090
-1.223145	21.201172	11.846476
-0.815430	23.647461	11.782076
-0.407715	22.424316	11.707357
-8.969727	21.608887	11.620937
-11.008301	24.055176	11.518512
-7.338867	24.870605	11.398557
0.407715	16.308594	11.265420
8.562012	3.669434	11.127015
11.823730	6.931152	10.990901
7.338867	4.077148	10.859794
0.815430	1.630859	10.730394
-3.669434	0.407715	10.596975
-5.708008	-4.892578	10.455253
-8.969727	-11.416016	10.302649
-6.931152	-15.085449	10.138101
0.815430	-5.708008	9.964574
1.630859	3.261719	9.787475
1.630859	12.231445	9.609617
-0.815430	30.986328	9.430792
-9.377441	39.548340	9.247697
-12.639160	46.479492	9.054721
-19.162598	53.818359	8.846837
-11.823730	46.479492	8.622585
-8.154297	23.647461	8.386045
-7.338867	15.493164	8.142095
-1.223145	11.008301	7.894325
0.815430	11.008301	7.647131
-4.484863	20.385742	7.402032
-0.815430	13.046875	7.157905
0.000000	1.630859	6.915713
1.630859	-12.231445	6.677444
2.446289	-5.300293	6.444454
-2.446289	0.407715	6.216321
-6.931152	6.931152	5.989531
-9.785156	6.931152	5.759869
-6.523437	2.854004	5.525887
-4.484863	0.815430	5.289525
-4.484863	4.484863	5.053068
-4.892578	5.300293	4.817196
-1.630859	4.077148	4.582774
1.630859	12.639160	4.352445
-1.223145	8.562012	4.128088
-9.785156	5.708008	3.906774
-16.716309	8.969727	3.681531
-16.716309	10.600586	3.446882
-21.608887	14.677734	3.200394
-19.978027	9.377441	2.940720
-17.124023	11.008301	2.669053
-14.270020	0.000000	2.388898
-14.270020	10.600586	2.103184
-18.754883	14.677734	1.812035
-15.900879	18.347168	1.514396
-13.046875	21.608887	1.211944
-8.969727	21.201172	0.908537
-8.154297	16.308594	0.607642
-12.231445	11.416016	0.309889
-15.085449	10.600586	0.012773
-20.793457	3.669434	-0.287495
-19.978027	4.077148	-0.593989
-15.493164	9.785156	-0.905998
-13.046875	12.639160	-1.219733
-14.270020	6.523437	-1.532642
-14.270020	-3.261719	-1.844434
-15.900879	0.407715	-2.155583
-15.085449	0.000000	-2.466433
-12.231445	6.523437	-2.775921
-16.716309	17.124023	-3.083248
-20.793457	15.493164	-3.390867
-16.716309	9.377441	-3.700690
-11.008301	11.416016	-4.009722
-14.270020	19.570313	-4.314460
-23.647461	20.793457	-4.617457
-24.055176	25.278320	-4.924363
-26.909180	30.578613	-5.238107
-20.793457	19.978027	-5.558049
-5.708008	14.270020	-5.877145
10.600586	-4.484863	-6.181283
17.531738	-17.531738	-6.456469
20.793457	-26.501465	-6.694943
23.647461	-19.570313	-6.893835
21.201172	-15.900879	-7.053015
0.407715	0.407715	-7.180113
-18.347168	22.424316	-7.292944
-32.209473	37.509766	-7.410992
-35.471191	41.179199	-7.546963
-40.771484	39.548340	-7.706650
-38.732910	34.248047	-7.891916
-29.355469	25.278320	-8.099265
-18.347168	29.355469	-8.319126
-14.677734	28.540039	-8.541488
-26.501465	19.978027	-8.764292
-33.432617	17.124023	-8.994351
-29.763184	18.347168	-9.236880
-15.900879	8.562012	-9.487310
-12.639160	14.677734	-9.735915
-15.900879	23.647461	-9.978019
-32.209473	31.801758	-10.218804
-46.887207	33.432617	-10.471356
-51.372070	43.217773	-10.748050
-47.294922	37.509766	-11.052643
-47.294922	36.286621	-11.382586
-51.372070	41.586914	-11.736385
-50.556641	51.779785	-12.114513
-37.102051	45.256348	-12.512581
-11.823730	33.432617	-12.915341
7.338867	15.493164	-13.300311
13.454590	-1.630859	-13.649577
15.493164	-11.823730	-13.955607
5.708008	-2.854004	-14.219933
-11.416016	9.377441	-14.453269
-32.209473	19.570313	-14.673805
-39.548340	27.316895	-14.899239
-26.501465	16.308594	-15.135002
-7.746582	10.600586	-15.370526
11.008301	3.669434	-15.587367
14.270020	-0.815430	-15.770506
-15.900879	15.493164	-15.922563
-54.633789	44.440918	-16.069957
-70.942383	58.303223	-16.245302
-64.418945	55.856934	-16.464177
-59.934082	58.303223	-16.724058
-55.856934	53.002930	-17.017673
-51.372070	43.625488	-17.338687
-48.518066	33.432617	-17.681343
-40.771484	28.132324	-18.039589
-31.801758	29.763184	-18.405166
-17.531738	22.832031	-18.766861
-8.562012	20.385742	-19.112261
-11.823730	8.154297	-19.434137
-9.785156	11.008301	-19.732038
-14.270020	12.231445	-20.007703
-7.338867	7.746582	-20.261848
-4.484863	6.931152	-20.491969
-2.446289	15.900879	-20.695057
-9.785156	22.832031	-20.872231
-13.046875	23.647461	-21.028656
-5.708008	24.462891	-21.166820
-1.223145	13.454590	-21.283231
-0.407715	5.708008	-21.374252
-2.446289	2.854004	-21.439868
6.523437	-2.854004	-21.479661
10.600586	-4.892578	-21.489511
17.124023	0.000000	-21.464554
19.162598	21.201172	-21.401359
10.600586	19.162598	-21.301190
13.454590	10.600586	-21.169039
16.308594	0.815430	-21.006496
30.578613	-4.892578	-20.809111
32.209473	-5.708008	-20.569994
39.140625	3.669434	-20.284862
34.655762	8.969727	-19.953208
37.509766	11.008301	-19.577274
41.586914	15.900879	-19.158069
48.110352	6.931152	-18.693390
57.487793	8.969727	-18.178822
77.465820	13.046875	-17.605280
84.804687	8.969727	-16.961152
69.311523	-1.223145	-16.245278
53.002930	-6.931152	-15.472158
53.818359	0.815430	-14.657623
56.672363	-2.854004	-13.807510
57.080078	5.708008	-12.922505
68.496094	9.377441	-12.001156
82.766113	4.484863	-11.036224
81.135254	0.407715	-10.020630
82.358398	1.630859	-8.954525
81.135254	2.446289	-7.841424
83.173828	3.669434	-6.684413
84.804687	19.570313	-5.485519
89.697266	24.055176	-4.245221
92.958984	21.201172	-2.962845
91.735840	22.424316	-1.638965
92.551270	15.493164	-0.276426
97.851562	18.754883	1.123088
107.636719	18.347168	2.562001
127.207031	19.978027	4.048689
148.408203	7.746582	5.597848
145.146484	3.669434	7.220440
127.614746	3.261719	8.910684
112.529297	8.154297	10.649708
108.452148	11.008301	12.419873
109.675293	11.416016	14.212123
114.975586	15.900879	16.024538
114.975586	22.832031	17.857408
118.645020	32.617187	19.710233
124.760742	26.909180	21.583700
124.760742	10.600586	23.479079
124.760742	1.223145	25.394993
131.691895	-2.854004	27.330320
132.915039	-6.931152	29.286109
133.730469	-2.446289	31.262054
141.884766	14.270020	33.258059
139.030762	9.785156	35.274866
134.953613	2.854004	37.308984
132.507324	1.223145	39.353957
136.584473	2.854004	41.405859
137.399902	11.008301	43.463935
146.777344	26.909180	45.529704
153.300781	33.432617	47.607501
159.416504	21.201172	49.702096
155.339355	11.823730	51.814383
153.300781	0.407715	53.940268
145.961914	12.231445	56.072833
146.777344	19.162598	58.205356
142.700195	13.046875	60.333028
141.884766	6.931152	62.451692
146.777344	-2.446289	64.559315
146.777344	-6.523437	66.656540
142.700195	-9.377441	68.741847
141.477051	-4.077148	70.811123
137.807617	0.815430	72.860242
141.069336	0.407715	74.886572
137.807617	-4.892578	76.888909
137.399902	-4.892578	78.865274
136.176758	8.562012	80.813372
138.623047	19.978027	82.732333
126.799316	33.432617	84.619316
123.945312	35.878906	86.467471
126.799316	27.724609	88.272757
120.275879	30.578613	90.034258
119.460449	20.793457	91.749215
113.752441	19.570313	93.414292
113.752441	16.308594	95.026789
120.683594	14.677734	96.587714
119.460449	9.785156	98.101084
111.713867	8.969727	99.566608
104.782715	9.377441	100.978701
104.782715	9.377441	102.332624
107.636719	14.677734	103.628520
106.413574	10.600586	104.868835
103.151855	8.562012	106.054034
100.705566	5.300293	107.182692
95.405273	15.085449	108.252651
86.843262	18.347168	109.259769
83.989258	12.639160	110.199197
84.804687	6.931152	111.069478
82.766113	5.300293	111.871977
83.581543	-5.300293	112.608278
77.465820	-7.338867	113.278894
79.504395	2.854004	113.883633
78.688965	6.931152	114.424095
73.796387	16.308594	114.901447
68.088379	23.239746	115.313762
63.603516	29.355469	115.658093
69.311523	31.801758	115.934803
72.980957	34.655762	116.149448
73.388672	35.063477	116.308151
72.573242	24.870605	116.414243
69.719238	28.132324	116.468926
75.019531	23.239746	116.474151
76.650391	18.347168	116.434617
81.135254	19.570313	116.355820
78.688965	11.008301	116.241765
70.942383	4.484863	116.092027
67.680664	1.223145	115.902812
61.157227	11.416016	115.670644
64.418945	7.746582	115.394287
62.788086	12.639160	115.075605
63.603516	16.716309	114.717065
61.157227	15.493164	114.320207
64.826660	16.716309	113.887077
71.757812	19.978027	113.422881
75.834961	19.162598	112.935190
65.234375	19.162598	112.426759
48.925781	24.870605	111.890280
36.286621	21.201172	111.312915
30.986328	22.832031	110.684806
26.501465	25.686035	110.001630
23.647461	24.462891	109.262101
29.763184	24.462891	108.468480
37.102051	18.347168	107.628442
35.878906	17.124023	106.750114
28.132324	15.493164	105.835405
33.024902	22.424316	104.883819
33.024902	21.608887	103.898561
31.394043	28.947754	102.883049
24.462891	31.801758	101.837045
24.870605	35.063477	100.759066
27.316895	34.655762	99.650730
37.102051	27.724609	98.518539
36.286621	21.201172	97.370334
41.179199	12.231445	96.211474
47.702637	8.969727	95.047730
47.294922	12.231445	93.885150
43.217773	12.231445	92.725333
42.402344	11.008301	91.566907
44.848633	9.377441	90.410172
44.033203	5.300293	89.257122
47.294922	-2.446289	88.109873
47.294922	-0.407715	86.970866
36.286621	8.562012	85.838891
39.140625	15.085449	84.709785
38.325195	20.793457	83.582996
34.248047	30.986328	82.458855
30.578613	35.063477	81.335103
21.201172	27.316895	80.207440
13.454590	35.063477	79.069303
11.823730	28.540039	77.915402
11.823730	26.909180	76.744770
11.008301	32.209473	75.558754
15.493164	31.801758	74.360046
19.978027	21.201172	73.153802
19.978027	14.677734	71.945164
15.493164	15.085449	70.735512
15.493164	0.815430	69.523806
20.793457	-1.223145	68.311626
15.493164	10.600586	67.101660
12.639160	10.600586	65.892937
10.600586	25.686035	64.683244
11.823730	44.033203	63.472396
14.677734	45.256348	62.262574
17.531738	31.801758	61.057574
24.462891	30.578613	59.862513
34.248047	18.754883	58.685158
44.848633	8.969727	57.535691
51.779785	7.338867	56.424015
53.410645	14.270020	55.356442
44.440918	11.416016	54.332415
27.316895	8.562012	53.342255
19.978027	18.347168	52.372187
16.308594	19.978027	51.413002
19.978027	15.900879	50.462324
24.462891	12.231445	49.522907
20.385742	19.978027	48.597477
14.677734	29.763184	47.683910
11.008301	30.986328	46.777595
6.931152	43.217773	45.874656
-0.407715	40.363770	44.970857
2.854004	33.432617	44.063114
-3.261719	24.870605	43.150741
-5.300293	25.278320	42.232014
-8.969727	29.763184	41.304545
-7.746582	26.909180	40.367563
-9.785156	22.424316	39.421625
-18.347168	27.724609	38.465134
-11.008301	27.724609	37.496467
-4.484863	24.055176	36.520512
5.708008	22.424316	35.546660
14.270020	27.316895	34.585155
21.201172	24.870605	33.645444
24.870605	26.501465	32.734383
25.278320	32.617187	31.855486
22.424316	26.909180	31.008647
20.385742	26.909180	30.191376
11.416016	28.540039	29.399014
6.931152	16.308594	28.624840
7.338867	10.600586	27.864237
11.823730	12.231445	27.117604
7.746582	32.617187	26.386484
15.085449	39.548340	25.671907
18.347168	39.548340	24.977516
10.600586	32.617187	24.304731
5.300293	20.385742	23.648676
4.892578	15.493164	23.004355
-2.446289	23.239746	22.368379
-5.708008	34.655762	21.736218
-4.077148	30.986328	21.105151
7.746582	33.432617	20.478897
12.639160	24.055176	19.865821
-2.446289	25.686035	19.267686
-8.969727	28.947754	18.676087
-13.454590	30.986328	18.082782
-11.823730	23.239746	17.484830
-2.446289	22.832031	16.885213
4.892578	15.900879	16.291919
9.377441	3.669434	15.712781
19.162598	-6.931152	15.154622
20.385742	-12.639160	14.623718
7.746582	-12.639160	14.119284
7.338867	-0.815430	13.634224
13.454590	3.669434	13.166243
11.008301	11.416016	12.717522
-1.223145	27.724609	12.284768
-16.308594	48.110352	11.856681
-11.008301	44.033203	11.423752
0.000000	26.501465	10.988369
4.077148	11.823730	10.559349
8.562012	5.300293	10.143065
14.270020	6.931152	9.744304
17.124023	15.493164	9.367619
17.124023	24.462891	9.015403
15.493164	26.909180	8.687239
6.523437	35.471191	8.379168
-5.708008	39.548340	8.082251
-16.716309	40.363770	7.784620
-22.424316	50.556641	7.476123
-17.531738	48.925781	7.152972
-6.931152	50.556641	6.820026
-4.484863	47.294922	6.485576
-7.338867	50.964355	6.153362
-9.785156	38.732910	5.822131
-5.708008	25.686035	5.491225
-4.892578	27.316895	5.162688
-4.892578	26.909180	4.838259
-8.969727	27.724609	4.517235
-9.785156	24.870605	4.197443
-11.416016	26.501465	3.877236
-7.338867	17.124023	3.556969
-0.815430	15.085449	3.240408
8.969727	19.162598	2.934787
14.270020	12.231445	2.648177
13.046875	16.308594	2.385053
11.008301	19.978027	2.144841
9.785156	22.832031	1.925042
13.454590	26.909180	1.724746
12.639160	36.694336	1.544674
4.484863	39.140625	1.382492
-0.815430	37.102051	1.231668
-5.708008	39.548340	1.085634
-9.377441	39.548340	0.939401
-9.785156	38.732910	0.789810
-11.416016	33.024902	0.635565
-6.931152	21.608887	0.477253
1.630859	9.377441	0.319401
9.785156	5.300293	0.169973
19.978027	15.493164	0.037954
26.909180	13.046875	-0.067986
14.270020	27.724609	-0.145921
4.484863	31.394043	-0.204427
1.630859	32.617187	-0.253534
-7.338867	34.655762	-0.300042
-8.969727	35.878906	-0.349911
-11.823730	25.686035	-0.406898
-13.454590	29.763184	-0.472979
-15.900879	21.201172	-0.549919
-19.978027	12.231445	-0.639932
-17.531738	13.046875	-0.744472
-15.900879	11.008301	-0.862128
-15.085449	0.815430	-0.990469
-12.639160	-5.300293	-1.127376
-0.815430	-1.630859	-1.267712
7.746582	21.201172	-1.402071
1.630859	24.870605	-1.524584
-6.523437	28.947754	-1.638765
-8.969727	19.978027	-1.751406
-8.969727	24.055176	-1.865884
-11.416016	26.501465	-1.983282
-13.046875	32.617187	-2.105058
-11.416016	27.724609	-2.231955
-8.969727	19.570313	-2.362539
-6.523437	15.900879	-2.494148
-4.077148	17.124023	-2.624026
-2.446289	13.046875	-2.749761
1.630859	16.308594	-2.868837
6.523437	13.046875	-2.977574
3.669434	5.708008	-3.073436
-1.223145	8.562012	-3.158405
-4.892578	16.716309	-3.237168
-8.969727	10.600586	-3.314209
-11.008301	11.416016	-3.393166
-11.008301	14.677734	-3.476012
-14.270020	15.493164	-3.563874
-11.416016	17.124023	-3.657398
-11.416016	23.647461	-3.755587
-15.085449	29.355469	-3.858339
-15.900879	35.471191	-3.967482
-16.716309	33.432617	-4.084219
-11.823730	34.248047	-4.207440
-13.046875	26.501465	-4.334686
-12.231445	17.531738	-4.464786
-8.154297	6.931152	-4.596294
0.407715	7.746582	-4.724403
3.669434	11.823730	-4.842707
8.154297	25.686035	-4.946385
2.446289	23.239746	-5.034276
0.815430	23.647461	-5.109254
-1.223145	24.870605	-5.174716
-3.261719	28.947754	-5.233059
-7.338867	32.617187	-5.287223
-10.600586	39.956055	-5.340874
-7.338867	39.548340	-5.395907
-7.746582	25.686035	-5.451452
-8.969727	19.978027	-5.507105
-4.484863	19.162598	-5.562376
-4.892578	32.209473	-5.615295
-15.900879	37.509766	-5.667841
-23.647461	27.316895	-5.727902
-27.724609	10.600586	-5.803107
-26.909180	5.300293	-5.896652
-25.686035	16.308594	-6.007930
-19.978027	19.162598	-6.133665
-9.377441	26.909180	-6.266964
-4.892578	33.432617	-6.399098
0.815430	42.402344	-6.523340
4.077148	45.256348	-6.634883
-3.261719	51.372070	-6.732901
-8.969727	52.187500	-6.822401
-11.416016	46.479492	-6.909246
-15.085449	44.440918	-6.997212
-15.900879	38.732910	-7.088941
-14.677734	30.986328	-7.185236
-16.716309	25.686035	-7.285899
-15.900879	25.278320	-7.391158
-16.308594	15.085449	-7.500912
-9.785156	12.231445	-7.613125
-3.261719	14.677734	-7.722537
0.815430	18.347168	-7.822945
6.931152	26.501465	-7.909192
1.630859	32.209473	-7.978936
-4.077148	27.316895	-8.035529
-6.523437	32.617187	-8.084541
-5.708008	39.140625	-8.128835
-3.261719	42.402344	-8.168150
-2.854004	37.102051	-8.201064
-2.446289	28.947754	-8.226868
-4.484863	29.763184	-8.246071
-0.815430	29.763184	-8.258952
-7.338867	37.509766	-8.266106
-7.746582	32.617187	-8.270355
-0.407715	24.462891	-8.271826
-3.261719	15.085449	-8.267645
1.630859	20.385742	-8.256358
-3.261719	16.308594	-8.237765
-4.892578	21.608887	-8.213928
-2.446289	19.162598	-8.186610
-5.300293	26.909180	-8.155891
-6.931152	25.278320	-8.123243
-9.785156	33.432617	-8.091142
-15.900879	40.363770	-8.063133
-20.793457	35.878906	-8.044307
-21.201172	28.132324	-8.038552
-17.124023	28.947754	-8.045711
-13.046875	34.655762	-8.062084
-11.416016	43.625488	-8.083596
-8.154297	44.848633	-8.107206
-3.261719	36.694336	-8.129367
-7.746582	25.278320	-8.147873
-8.154297	26.909180	-8.164048
-4.484863	26.909180	-8.178408
-8.969727	32.209473	-8.190379
-11.008301	31.801758	-8.201983
-7.746582	27.724609	-8.214618
0.000000	32.617187	-8.225011
-1.223145	35.878906	-8.228647
2.854004	42.402344	-8.223364
0.000000	31.394043	-8.208502
-0.407715	29.763184	-8.185046
-1.630859	24.055176	-8.154694
-4.892578	28.540039	-8.119399
-4.892578	23.647461	-8.081455
-1.223145	17.124023	-8.040917
-4.077148	9.785156	-7.996765
-5.300293	15.900879	-7.950066
-4.892578	15.493164	-7.902272
-0.815430	15.493164	-7.852516
2.446289	19.570313	-7.797835
-2.446289	23.647461	-7.737010
-5.708008	19.162598	-7.672954
-7.338867	24.055176	-7.609307
-11.008301	22.424316	-7.548796
-11.008301	19.978027	-7.493697
-10.600586	15.900879	-7.444681
-10.600586	20.385742	-7.401310
-11.823730	18.754883	-7.363587
-11.823730	17.531738	-7.331938
-7.746582	19.978027	-7.305373
0.000000	18.754883	-7.279510
3.261719	6.931152	-7.248349
6.523437	4.077148	-7.207556
6.931152	3.669434	-7.154934
9.785156	4.484863	-7.089253
12.639160	7.746582	-7.008817
3.669434	14.270020	-6.914486
3.669434	10.600586	-6.810953
-0.815430	22.832031	-6.702277
-8.154297	33.432617	-6.593090
-4.892578	36.694336	-6.487706
-2.446289	34.248047	-6.385636
-1.223145	37.509766	-6.284372
-0.815430	31.801758	-6.182594
0.000000	32.617187	-6.079681
-1.223145	23.647461	-5.975578
-5.708008	23.239746	-5.872056
-8.969727	19.978027	-5.772732
-8.969727	19.570313	-5.680410
-3.669434	23.647461	-5.594336
-1.630859	18.347168	-5.510996
0.407715	15.900879	-5.427356
-4.892578	21.201172	-5.343303
-8.154297	20.385742	-5.262049
-7.746582	21.201172	-5.186552
-11.823730	33.432617	-5.118344
-14.677734	35.878906	-5.059952
-15.085449	38.732910	-5.013669
-17.124023	42.402344	-4.980494
-15.900879	29.763184	-4.960726
-12.231445	17.531738	-4.952706
-8.562012	11.823730	-4.952698
-9.785156	9.377441	-4.957768
-11.008301	-0.407715	-4.967680
-18.347168	-2.446289	-4.985098
-5.708008	0.815430	-5.010518
-6.523437	6.931152	-5.039053
-6.523437	19.162598	-5.067641
-6.523437	34.655762	-5.096463
-8.154297	35.063477	-5.125907
-9.785156	39.956055	-5.157199
-11.823730	44.033203	-5.192043
-10.600586	36.694336	-5.231420
-11.008301	23.647461	-5.275082
-7.746582	22.424316	-5.321826
-4.484863	19.978027	-5.368999
-3.261719	24.870605	-5.413642
3.669434	25.686035	-5.452501
5.300293	26.909180	-5.481407
4.484863	19.570313	-5.498316
8.562012	15.493164	-5.502684
13.454590	19.162598	-5.491862
3.669434	15.493164	-5.465477
-8.969727	19.570313	-5.431440
-16.308594	27.724609	-5.401270
-19.570313	25.686035	-5.382857
-24.870605	32.617187	-5.380722
-23.647461	44.033203	-5.397448
-19.570313	44.440918	-5.431844
-15.900879	34.655762	-5.479644
-14.677734	23.239746	-5.536870
-9.785156	17.531738	-5.600145
-8.154297	26.909180	-5.665806
-4.077148	28.540039	-5.730465
-3.261719	26.501465	-5.791312
-3.669434	12.639160	-5.847066
0.000000	8.562012	-5.896935
1.223145	11.416016	-5.938990
4.484863	19.978027	-5.971078
5.708008	28.947754	-5.991261
3.261719	26.909180	-5.999201
-1.223145	28.947754	-5.997585
-4.077148	24.462891	-5.990597
-1.223145	35.471191	-5.980416
2.854004	31.394043	-5.965376
2.854004	23.239746	-5.942822
5.300293	20.385742	-5.911404
9.377441	16.308594	-5.869200
10.600586	19.162598	-5.813638
7.746582	16.308594	-5.744418
8.562012	10.600586	-5.663194
10.600586	2.854004	-5.570383
15.493164	-2.854004	-5.464036
16.308594	-4.077148	-5.341558
11.008301	-4.484863	-5.203487
0.815430	11.416016	-5.055924
-4.077148	19.570313	-4.907485
-1.223145	24.055176	-4.762866
-4.484863	25.278320	-4.622687
-5.300293	30.986328	-4.488072
-7.746582	37.509766	-4.360839
-17.124023	37.102051	-4.244750
-26.909180	39.140625	-4.147562
-22.424316	23.647461	-4.074945
-13.046875	17.124023	-4.023615
-4.077148	17.531738	-3.984199
-4.484863	15.493164	-3.949130
-6.523437	8.154297	-3.916642
-6.931152	7.338867	-3.887936
-8.562012	15.493164	-3.864050
-5.708008	12.639160	-3.845005
-7.746582	18.754883	-3.830065
-9.785156	17.124023	-3.819918
-11.008301	19.162598	-3.816285
-3.261719	19.978027	-3.818017
0.407715	26.909180	-3.820156
4.077148	31.801758	-3.817757
3.669434	23.647461	-3.808241
2.854004	19.978027	-3.791407
2.446289	13.046875	-3.768246
0.815430	7.338867	-3.739925
4.892578	12.639160	-3.706602
5.300293	9.377441	-3.666718
-1.223145	5.300293	-3.621039
-3.261719	2.446289	-3.573732
0.000000	8.154297	-3.526849
0.407715	8.154297	-3.479134
8.562012	16.308594	-3.427462
4.484863	28.540039	-3.368747
3.669434	32.617187	-3.303583
-4.077148	38.732910	-3.235866
-0.407715	40.771484	-3.169103
0.000000	45.664062	-3.103320
-9.377441	39.140625	-3.039828
0.815430	34.655762	-2.980731
-3.261719	22.424316	-2.924072
-2.446289	16.308594	-2.869049
-3.261719	15.493164	-2.816505
0.815430	16.308594	-2.765523
0.407715	14.677734	-2.714268
2.446289	16.308594	-2.661412
5.300293	14.270020	-2.605370
6.931152	7.338867	-2.543881
8.562012	13.046875	-2.475224
8.562012	22.424316	-2.398508
6.523437	22.832031	-2.314287
6.931152	33.432617	-2.223954
10.600586	36.694336	-2.127237
14.270020	30.986328	-2.021530
17.531738	29.763184	-1.903601
23.647461	34.655762	-1.769844
25.278320	31.801758	-1.616619
20.385742	29.763184	-1.443791
13.454590	22.424316	-1.256393
5.708008	13.046875	-1.062243
0.407715	1.223145	-0.869134
-7.338867	0.815430	-0.684077
-8.154297	11.416016	-0.512577
-9.785156	13.454590	-0.357092
-14.677734	24.870605	-0.219416
-7.338867	31.801758	-0.099958
-5.708008	28.132324	0.004982
-4.077148	25.278320	0.099163
-2.854004	25.686035	0.184581
-3.261719	24.870605	0.262507
-2.854004	15.900879	0.333413
-2.854004	16.716309	0.397650
-7.338867	21.201172	0.454382
-4.484863	24.055176	0.502281
-3.261719	19.162598	0.542342
0.815430	11.416016	0.577339
8.562012	11.008301	0.611965
12.639160	10.600586	0.652412
21.201172	14.677734	0.704799
20.385742	8.154297	0.773885
24.462891	11.416016	0.861734
10.600586	15.493164	0.965688
8.969727	22.424316	1.078268
4.484863	24.870605	1.193290
6.931152	30.986328	1.308378
5.300293	25.686035	1.423089
4.484863	21.608887	1.536890
4.484863	19.570313	1.648846
4.077148	8.969727	1.758601
9.785156	10.600586	1.867426
19.570313	10.600586	1.980710
17.531738	4.484863	2.104238
23.647461	0.000000	2.240520
26.909180	5.708008	2.392371
24.870605	16.308594	2.561709
31.394043	8.154297	2.749064
34.248047	14.677734	2.957065
33.024902	19.978027	3.187448
33.432617	31.801758	3.439172
32.209473	35.878906	3.710577
31.394043	39.548340	3.999735
31.801758	34.655762	4.304897
34.248047	29.355469	4.625659
36.286621	35.878906	4.962904
42.402344	29.763184	5.318853
56.672363	22.832031	5.699779
66.865234	9.785156	6.115933
71.350098	-6.931152	6.575562
76.242676	-5.708008	7.082533
80.319824	11.008301	7.638987
78.688965	21.201172	8.245097
75.427246	24.870605	8.897332
79.504395	29.763184	9.591846
78.688965	35.471191	10.327065
77.465820	31.801758	11.100692
70.534668	29.763184	11.907498
69.311523	35.878906	12.740846
70.534668	37.509766	13.596517
71.757812	31.801758	14.473241
77.465820	38.325195	15.371608
88.881836	29.763184	16.296012
85.212402	32.617187	17.250835
85.620117	19.978027	18.234873
94.589844	19.978027	19.247374
102.336426	15.493164	20.292841
113.752441	15.493164	21.378105
115.791016	11.823730	22.508791
112.529297	7.338867	23.684865
111.306152	12.231445	24.901536
114.975586	16.716309	26.155150
119.868164	17.531738	27.445608
121.499023	16.716309	28.773847
126.391602	24.055176	30.140187
124.760742	16.308594	31.544035
134.545898	15.493164	32.985216
140.661621	24.870605	34.466843
143.515625	25.686035	35.992060
140.253906	27.316895	37.559537
147.592773	30.578613	39.166678
143.515625	25.686035	40.811923
145.146484	28.540039	42.492031
139.438477	35.878906	44.201944
136.992188	33.432617	45.935301
136.992188	19.978027	47.686434
145.146484	19.978027	49.454197
155.747070	21.201172	51.243047
157.785645	18.347168	53.058397
167.163086	17.124023	54.903457
167.163086	22.424316	56.780403
164.716797	27.724609	58.687641
168.793945	19.162598	60.621579
167.570801	29.763184	62.580152
166.755371	39.140625	64.560402
167.570801	39.956055	66.558729
173.686523	36.694336	68.574035
176.948242	32.209473	70.607718
171.240234	23.647461	72.658628
172.871094	24.870605	74.722117
181.025391	34.655762	76.796945
189.995117	35.878906	78.887487
195.703125	34.655762	80.999189
191.625977	27.724609	83.133156
190.810547	21.608887	85.285282
189.179687	32.617187	87.450553
183.879395	48.925781	89.623636
172.055664	57.487793	91.795574
164.309082	59.526367	93.954498
159.824219	59.934082	96.090375
158.601074	59.934082	98.197293
164.309082	61.564941	100.274028
166.755371	56.672363	102.323087
167.570801	51.372070	104.346570
171.647949	39.140625	106.345650
172.055664	43.217773	108.321797
168.793945	52.187500	110.274402
167.978516	55.856934	112.200660
160.231934	50.964355	114.096419
154.523926	45.256348	115.955287
154.931641	30.986328	117.772055
164.309082	37.102051	119.547900
166.755371	52.187500	121.288488
167.163086	67.680664	122.997441
164.716797	65.234375	124.674613
159.008789	66.865234	126.317003
155.747070	55.041504	127.919965
158.601074	49.741211	129.481135
170.832520	41.179199	131.004625
171.240234	40.363770	132.497822
164.309082	32.209473	133.962138
161.862793	30.578613	135.393166
159.824219	38.732910	136.787268
157.785645	39.548340	138.142405
159.824219	44.440918	139.457846
156.562500	47.702637	140.733688
152.893066	52.187500	141.968241
158.601074	66.865234	143.160794
156.154785	76.242676	144.313391
154.523926	72.165527	145.426415
148.815918	65.642090	146.497492
145.146484	70.942383	147.523006
144.331055	64.826660	148.500303
140.661621	62.788086	149.428185
140.253906	60.341797	150.305665
142.700195	59.118652	151.133572
139.438477	53.002930	151.913602
143.515625	53.818359	152.647105
143.107910	70.534668	153.336598
139.438477	70.534668	153.983242
137.399902	76.650391	154.585730
133.730469	63.603516	155.142431
139.030762	55.449219	155.653763
141.069336	56.264648	156.123600
140.661621	62.788086	156.555687
143.923340	63.603516	156.952458
137.807617	55.041504	157.315095
136.584473	55.041504	157.642088
134.953613	51.372070	157.932030
127.614746	45.256348	158.183190
127.207031	36.286621	158.392669
124.353027	36.694336	158.559245
120.275879	51.372070	158.682009
115.383301	55.856934	158.758641
117.014160	61.564941	158.787937
114.975586	48.518066	158.771048
111.306152	48.110352	158.708477
108.859863	47.702637	158.599255
113.752441	49.741211	158.444646
110.490723	52.187500	158.247941
109.675293	55.449219	158.010610
109.675293	52.187500	157.733460
107.229004	44.848633	157.417728
111.713867	44.440918	157.065388
106.413574	45.256348	156.678791
99.482422	44.033203	156.256467
97.036133	38.732910	155.794802
102.336426	38.732910	155.294351
104.782715	37.509766	154.760182
105.598145	39.956055	154.197277
103.967285	36.694336	153.608170
101.113281	37.509766	152.993276
102.336426	48.925781	152.352803
96.220703	53.410645	151.686870
91.735840	42.402344	150.993260
91.328125	42.402344	150.269886
96.220703	45.256348	149.518750
97.851562	48.518066	148.744791
100.705566	52.187500	147.952748
96.628418	55.856934	147.145129
89.697266	44.440918	146.320277
91.328125	33.432617	145.475554
89.697266	29.763184	144.611356
90.512695	27.724609	143.729260
92.551270	29.355469	142.831539
88.474121	27.724609	141.920058
91.735840	36.286621	140.995649
92.551270	39.140625	140.060726
92.143555	42.810059	139.117926
91.328125	40.363770	138.168383
86.435547	34.655762	137.211578
85.620117	31.801758	136.245847
82.766113	37.509766	135.270147
81.135254	41.586914	134.283812
88.066406	39.548340	133.288575
88.474121	44.440918	132.289205
94.997559	38.732910	131.290687
94.997559	35.878906	130.297568
88.474121	36.694336	129.310645
85.212402	35.878906	128.326392
81.135254	27.724609	127.341222
79.504395	19.162598	126.352785
82.358398	20.385742	125.361091
86.435547	22.832031	124.369469
85.212402	34.248047	123.381531
80.319824	36.286621	122.397289
71.757812	43.625488	121.412471
72.573242	50.556641	120.422566
69.311523	59.118652	119.426169
61.564941	52.595215	118.421087
56.672363	55.041504	117.402556
55.041504	56.672363	116.367223
53.002930	51.372070	115.314260
55.449219	36.694336	114.244715
59.118652	29.355469	113.162177
62.788086	28.947754	112.071906
62.788086	30.578613	110.978291
66.865234	28.947754	109.884666
70.942383	34.655762	108.795395
71.757812	29.763184	107.714852
70.942383	33.432617	106.645062
69.311523	28.540039	105.586019
68.903809	37.509766	104.537172
66.865234	39.956055	103.497981
60.749512	51.779785	102.466317
57.487793	50.556641	101.438318
58.303223	37.102051	100.411790
57.487793	37.509766	99.387105
60.749512	40.363770	98.365897
63.195801	45.664062	97.351224
64.011230	48.925781	96.346212
59.526367	36.694336	95.351373
52.595215	23.647461	94.363328
53.002930	16.308594	93.378095
50.556641	19.978027	92.394333
50.964355	19.978027	91.411937
49.741211	29.763184	90.431129
48.518066	37.509766	89.452009
45.664062	39.548340	88.473817
45.256348	35.878906	87.495611
47.294922	44.033203	86.517991
49.741211	46.887207	85.543564
48.110352	42.402344	84.574601
50.556641	39.548340	83.612302
47.702637	34.655762	82.657483
44.848633	43.217773	81.709201
48.925781	43.625488	80.766979
56.672363	39.140625	79.834959
67.680664	37.509766	78.921691
64.011230	35.878906	78.034140
64.011230	33.432617	77.173036
64.826660	25.278320	76.337336
55.041504	32.617187	75.524626
50.964355	35.878906	74.728719
48.110352	37.509766	73.944229
42.402344	43.217773	73.167392
44.848633	41.586914	72.395573
43.217773	36.286621	71.628711
32.617187	30.986328	70.864389
31.801758	43.625488	70.097084
28.132324	41.586914	69.323560
30.986328	37.509766	68.543519
30.578613	26.909180	67.758505
28.540039	26.909180	66.969567
25.686035	28.132324	66.175784
30.578613	27.316895	65.377461
35.878906	35.878906	64.578856
40.771484	26.501465	63.786174
39.548340	31.394043	63.003623
33.024902	30.986328	62.230494
35.878906	35.471191	61.464174
34.248047	41.179199	60.704517
38.325195	46.887207	59.952983
31.394043	38.732910	59.209886
28.132324	31.801758	58.472199
26.909180	25.686035	57.736594
30.986328	25.686035	57.003323
37.509766	24.462891	56.276585
42.402344	22.424316	55.562630
43.625488	11.008301	54.866235
43.217773	12.639160	54.189157
42.402344	16.308594	53.531124
35.878906	29.355469	52.889716
27.724609	30.578613	52.259070
24.462891	28.540039	51.632507
25.686035	27.316895	51.006965
23.647461	26.909180	50.382307
29.355469	40.363770	49.759897
26.501465	52.187500	49.142001
20.385742	50.556641	48.527458
9.377441	41.179199	47.909908
4.484863	43.625488	47.281459
4.484863	41.586914	46.637805
8.562012	42.402344	45.980095
9.377441	32.617187	45.312015
10.600586	27.316895	44.636556
17.124023	17.124023	43.957335
19.570313	11.416016	43.279625
18.754883	18.347168	42.606855
20.385742	23.239746	41.940151
22.424316	28.947754	41.281117
21.201172	26.909180	40.631275
17.124023	28.132324	39.989715
16.308594	40.363770	39.354056
18.754883	49.333496	38.723843
19.162598	47.294922	38.100670
23.647461	42.402344	37.486907
20.793457	48.110352	36.884486
17.531738	39.140625	36.292348
15.493164	34.655762	35.707651
11.008301	30.578613	35.127565
10.600586	19.570313	34.549494
12.639160	9.377441	33.973094
11.008301	10.600586	33.399434
14.270020	8.562012	32.829525
17.124023	9.377441	32.265833
17.531738	26.501465	31.711131
17.531738	39.548340	31.166558
16.308594	44.440918	30.632014
12.639160	42.402344	30.105999
5.300293	40.363770	29.584503
0.815430	31.801758	29.061870
0.815430	15.493164	28.534418
1.630859	26.909180	28.001956
8.969727	34.655762	27.467625
9.377441	39.140625	26.936250
3.669434	34.655762	26.408896
4.892578	28.132324	25.883366
5.300293	24.870605	25.359380
6.931152	25.686035	24.838381
10.600586	30.578613	24.322711
8.562012	33.432617	23.814489
15.085449	39.140625	23.315520
19.162598	42.402344	22.829870
14.270020	34.655762	22.360017
12.639160	39.956055	21.903811
15.900879	45.256348	21.459828
15.493164	53.818359	21.029159
13.454590	41.179199	20.611759
15.493164	39.956055	20.206824
13.454590	34.655762	19.814215
12.231445	33.432617	19.432928
8.562012	36.694336	19.060708
14.677734	29.763184	18.696895
19.570313	20.385742	18.345022
20.793457	14.677734	18.009418
19.162598	12.231445	17.691197
17.531738	13.046875	17.388942
13.454590	28.132324	17.099891
12.639160	26.909180	16.820964
5.708008	19.162598	16.548676
1.630859	23.239746	16.278085
2.446289	26.909180	16.005650
3.669434	29.763184	15.731420
-2.446289	27.316895	15.455014
-8.562012	35.878906	15.172323
-7.746582	33.432617	14.879324
-12.231445	32.617187	14.574435
-8.154297	25.686035	14.257445
-4.077148	19.570313	13.931270
-6.523437	6.931152	13.599238
-7.338867	9.377441	13.261537
-4.077148	22.832031	12.918563
-1.223145	26.501465	12.573166
0.407715	29.763184	12.228602
-4.892578	37.509766	11.885410
1.630859	37.509766	11.543245
-0.815430	30.578613	11.203814
0.407715	30.986328	10.868098
-9.377441	32.617187	10.533712
1.223145	25.278320	10.198911
-3.261719	32.209473	9.865888
4.077148	28.947754	9.537267
9.377441	26.501465	9.217264
6.931152	24.462891	8.909895
5.708008	22.424316	8.614697
4.892578	15.085449	8.329928
5.708008	17.531738	8.054879
4.484863	25.686035	7.789293
4.484863	28.947754	7.532590
1.223145	26.909180	7.283461
-3.261719	29.763184	7.038931
-6.523437	27.724609	6.794979
-6.523437	26.909180	6.548945
-7.338867	35.878906	6.300109
-5.708008	32.617187	6.048860
-7.746582	23.239746	5.795679
-11.008301	23.647461	5.539420
-9.377441	18.754883	5.278670
-12.231445	16.308594	5.013158
-12.639160	19.570313	4.742199
-11.008301	27.724609	4.465791
-11.416016	24.870605	4.185114
-11.008301	27.724609	3.900976
-6.931152	27.724609	3.615011
-7.338867	29.763184	3.329745
-9.377441	35.471191	3.045767
-9.785156	36.694336	2.762032
-8.154297	36.694336	2.478505
-8.969727	31.394043	2.196011
-13.454590	42.402344	1.913621
-13.046875	50.556641	1.629165
-14.677734	41.179199	1.341642
-11.008301	43.625488	1.051708
-8.154297	39.140625	0.762025
-3.669434	29.763184	0.476529
-2.446289	32.617187	0.198756
-7.338867	28.947754	-0.070815
-14.270020	16.308594	-0.336344
-13.046875	13.454590	-0.602339
-4.892578	36.694336	-0.867537
-3.669434	44.440918	-1.126767
-10.600586	38.325195	-1.379065
-15.085449	35.878906	-1.628977
-16.716309	29.763184	-1.880954
-19.978027	30.986328	-2.137530
-20.793457	44.440918	-2.400582
-19.162598	48.925781	-2.670399
-20.793457	51.372070	-2.946175
-20.385742	48.110352	-3.227672
-15.900879	41.179199	-3.513372
-11.823730	27.724609	-3.799249
-4.484863	33.024902	-4.079746
-4.484863	33.432617	-4.349887
-5.708008	26.501465	-4.608249
-14.677734	22.424316	-4.858095
-18.347168	18.754883	-5.105545
-15.900879	14.677734	-5.354089
-5.708008	21.201172	-5.600418
-9.785156	24.055176	-5.839446
-20.793457	29.763184	-6.073610
-22.832031	34.655762	-6.310274
-22.832031	47.294922	-6.553038
-22.832031	53.818359	-6.801907
-19.570313	49.333496	-7.055485
-19.570313	49.741211	-7.311580
-21.608887	45.664062	-7.569487
-9.785156	43.217773	-7.826817
-4.077148	40.363770	-8.076151
0.000000	24.870605	-8.310413
-4.484863	24.055176	-8.527577
-4.892578	16.308594	-8.729581
-1.223145	18.754883	-8.917329
-0.815430	16.308594	-9.089342
-2.854004	24.055176	-9.245509
-8.154297	15.085449	-9.388740
-11.008301	19.162598	-9.523541
-15.085449	22.424316	-9.654115
-15.900879	32.209473	-9.783623
-13.046875	42.810059	-9.912726
-16.716309	35.878906	-10.040985
-15.085449	41.179199	-10.169055
-15.900879	39.548340	-10.297129
-13.046875	38.732910	-10.424325
-16.308594	29.763184	-10.550119
-15.085449	17.531738	-10.675085
-11.008301	12.639160	-10.798273
-11.008301	8.969727	-10.917171
-8.969727	12.639160	-11.030241
-10.600586	6.523437	-11.136986
-8.969727	19.162598	-11.237474
-11.823730	26.909180	-11.332204
-13.046875	34.655762	-11.422729
-12.639160	44.440918	-11.510430
-15.085449	49.333496	-11.596093
-13.046875	37.102051	-11.680363
-16.716309	25.686035	-11.763749
-16.716309	33.432617	-11.847597
-15.900879	36.694336	-11.932547
-19.162598	39.140625	-12.018888
-18.347168	41.179199	-12.107752
-16.716309	33.432617	-12.198931
-16.716309	19.162598	-12.291154
-12.639160	19.162598	-12.382776
-5.300293	24.462891	-12.469659
2.446289	14.677734	-12.544965
-6.931152	19.162598	-12.605605
-7.338867	19.978027	-12.655178
-19.162598	22.424316	-12.699917
-15.493164	28.132324	-12.745350
-16.308594	24.870605	-12.792790
-17.124023	22.424316	-12.841774
-9.785156	13.454590	-12.890896
-14.677734	19.978027	-12.937742
-14.677734	19.978027	-12.983008
-13.046875	28.540039	-13.027575
-9.377441	22.832031	-13.069608
-9.785156	17.531738	-13.106927
-17.531738	2.854004	-13.140993
-19.570313	0.407715	-13.176629
-18.754883	7.338867	-13.216619
-11.823730	10.600586	-13.259010
-14.677734	8.562012	-13.300542
-13.046875	9.785156	-13.340461
-11.008301	18.347168	-13.378156
-12.639160	23.647461	-13.412616
-16.716309	24.870605	-13.445345
-18.754883	24.870605	-13.479492
-20.385742	19.978027	-13.517528
-25.686035	21.201172	-13.562021
-37.102051	7.746582	-13.618843
-32.617187	4.484863	-13.693589
-32.617187	8.562012	-13.786010
-22.832031	8.562012	-13.891460
-22.424316	0.000000	-14.003989
-23.647461	4.484863	-14.120695
-23.239746	12.231445	-14.241694
-22.424316	4.484863	-14.366558
-19.978027	9.377441	-14.493803
-22.832031	11.416016	-14.622436
-23.239746	18.754883	-14.753224
-20.793457	18.754883	-14.886253
-20.793457	27.316895	-15.020104
-24.870605	24.870605	-15.155027
-23.239746	19.570313	-15.292545
-22.832031	19.978027	-15.432503
-16.716309	18.347168	-15.572396
-16.308594	16.716309	-15.708650
-14.677734	11.823730	-15.839040
-19.570313	-4.484863	-15.964014
-24.870605	-18.754883	-16.087222
-21.608887	-2.854004	-16.211826
-19.570313	14.677734	-16.336777
-11.008301	22.832031	-16.457750
-7.746582	24.870605	-16.568907
-4.484863	13.046875	-16.665757
-11.008301	7.338867	-16.747990
-4.077148	17.124023	-16.816931
-2.854004	32.617187	-16.870862
0.815430	32.617187	-16.906977
-9.377441	21.608887	-16.926476
-12.639160	19.978027	-16.935338
-17.124023	17.531738	-16.939606
-16.716309	22.832031	-16.942589
-17.124023	23.647461	-16.945413
-11.823730	22.424316	-16.946798
-11.008301	13.454590	-16.943914
-11.008301	14.270020	-16.935139
-8.154297	20.385742	-16.919784
-11.416016	17.124023	-16.897521
-11.823730	19.162598	-16.869758
-12.639160	27.316895	-16.838057
-15.900879	30.986328	-16.804023
-15.085449	27.316895	-16.769512
-13.046875	32.617187	-16.734474
-14.270020	35.878906	-16.698005
-5.708008	38.732910	-16.658068
-8.969727	34.655762	-16.611540
-6.523437	19.162598	-16.557591
-7.746582	5.708008	-16.496508
-5.300293	3.261719	-16.428034
-4.892578	4.484863	-16.351507
0.815430	2.446289	-16.265014
6.931152	14.677734	-16.164386
11.823730	21.608887	-16.044372
12.231445	18.347168	-15.901691
7.746582	22.424316	-15.737200
0.815430	17.531738	-15.556130
-2.446289	22.424316	-15.365099
-5.708008	31.801758	-15.169149
-12.639160	38.732910	-14.973101
-17.124023	30.986328	-14.782842
-10.600586	26.501465	-14.600772
-13.046875	34.655762	-14.425106
-11.008301	33.432617	-14.254773
-8.562012	29.763184	-14.088641
2.854004	23.647461	-13.921873
4.892578	23.647461	-13.747498
4.484863	15.493164	-13.562081
-1.223145	19.570313	-13.367496
-1.630859	22.832031	-13.167575
0.000000	19.162598	-12.964055
3.669434	24.055176	-12.755601
5.300293	29.355469	-12.539868
8.154297	23.239746	-12.314845
11.823730	24.870605	-12.078296
12.231445	30.986328	-11.828208
12.639160	28.947754	-11.564171
11.823730	20.793457	-11.286989
9.377441	18.347168	-10.998511
7.338867	17.124023	-10.701588
7.338867	15.900879	-10.398628
7.746582	13.454590	-10.090652
5.300293	11.416016	-9.778638
8.562012	11.416016	-9.463420
4.484863	11.416016	-9.145472
8.154297	9.785156	-8.825575
4.484863	14.270020	-8.504260
-1.223145	21.201172	-8.184392
-2.854004	24.462891	-7.870633
0.000000	30.578613	-7.564642
-0.407715	38.732910	-7.265425
1.630859	42.810059	-6.971919
1.630859	41.179199	-6.683208
1.630859	37.509766	-6.398844
1.630859	29.355469	-6.118928
4.484863	14.270020	-5.842804
6.931152	6.523437	-5.568447
14.677734	11.008301	-5.291996
12.231445	15.493164	-5.009766
7.746582	15.900879	-4.722744
2.854004	23.239746	-4.435733
4.484863	29.355469	-4.152355
4.892578	19.978027	-3.873063
7.746582	12.231445	-3.596574
5.708008	15.493164	-3.321980
3.669434	20.793457	-3.050340
3.669434	28.132324	-2.783414
5.708008	34.655762	-2.521266
4.484863	39.140625	-2.263208
7.746582	33.024902	-2.008575
10.600586	28.947754	-1.755336
6.931152	15.900879	-1.502304
12.639160	16.716309	-1.249412
9.377441	24.870605	-0.995743
11.008301	23.239746	-0.741384
9.785156	28.132324	-0.486954
8.969727	29.763184	-0.233153
8.154297	35.063477	0.018817
7.746582	27.724609	0.268025
3.669434	27.724609	0.512835
0.815430	16.308594	0.750189
-3.261719	7.746582	0.976535
-4.077148	14.677734	1.189029
-3.261719	22.424316	1.386788
0.000000	24.870605	1.571344
0.407715	23.239746	1.745137
-2.854004	25.278320	1.908685
0.407715	18.347168	2.061531
1.630859	16.308594	2.205178
1.630859	24.462891	2.341391
2.446289	20.793457	2.470899
2.854004	1.630859	2.594406
3.669434	3.261719	2.712696
4.077148	17.124023	2.826524
2.446289	27.316895	2.935973
-2.446289	34.655762	3.039091
-4.484863	41.586914	3.132522
-3.261719	42.402344	3.214572
-0.815430	42.402344	3.286421
2.446289	44.440918	3.350917
0.000000	40.771484	3.410042
-7.746582	34.248047	3.461512
-6.523437	28.540039	3.501228
-5.708008	19.570313	3.528505
3.669434	19.978027	3.547089
0.815430	18.347168	3.561747
5.708008	17.531738	3.574890
2.854004	11.416016	3.587644
-5.708008	4.484863	3.597549
-8.562012	3.261719	3.598727
-8.154297	3.669434	3.587931
-1.223145	16.308594	3.566999
5.708008	28.132324	3.541983
12.231445	35.063477	3.520269
11.008301	34.655762	3.506657
7.746582	39.548340	3.501009
-4.484863	38.732910	3.497722
-9.785156	35.471191	3.488016
-8.969727	43.625488	3.466411
-5.300293	38.732910	3.433466
-10.600586	37.509766	3.390481
-9.785156	35.063477	3.336350
-2.446289	18.754883	3.272597
-1.223145	4.484863	3.204118
3.261719	11.823730	3.134946
9.785156	23.239746	3.069578
6.523437	21.201172	3.011658
7.338867	22.424316	2.961123
2.854004	14.677734	2.916086
5.300293	15.493164	2.874845
5.708008	19.978027	2.837486
7.746582	39.956055	2.805265
4.484863	40.363770	2.778303
1.630859	42.810059	2.754463
2.854004	42.402344	2.731594
5.300293	41.586914	2.710212
5.708008	38.325195	2.691984
6.931152	34.248047	2.677965
9.785156	26.501465	2.669480
2.854004	9.377441	2.666285
0.815430	4.077148	2.664717
-1.630859	10.600586	2.661170
1.223145	7.338867	2.654666
1.630859	8.154297	2.646310
1.630859	5.300293	2.637159
6.931152	14.677734	2.628758
13.454590	25.686035	2.625579
15.493164	39.956055	2.632744
11.823730	48.110352	2.651599
10.600586	40.363770	2.679880
6.931152	34.655762	2.714559
4.077148	19.162598	2.752311
5.300293	9.785156	2.790816
8.969727	15.493164	2.830856
9.377441	19.162598	2.874675
11.416016	11.416016	2.923769
9.377441	17.531738	2.978491
8.154297	27.724609	3.037671
7.746582	30.578613	3.099761
6.931152	27.724609	3.163812
5.300293	23.647461	3.228705
4.484863	23.647461	3.293048
6.931152	34.655762	3.356585
4.892578	40.363770	3.419821
4.484863	35.878906	3.482167
0.000000	24.870605	3.541671
-0.407715	30.578613	3.595828
-8.154297	22.424316	3.641396
-3.669434	18.347168	3.675718
-2.854004	14.270020	3.699803
2.446289	16.308594	3.717088
6.931152	20.793457	3.732041
8.154297	30.986328	3.748821
6.931152	30.986328	3.768826
-5.300293	33.024902	3.788357
-5.708008	29.763184	3.800558
-7.746582	26.909180	3.801787
-4.892578	19.978027	3.792111
-2.446289	24.055176	3.773640
8.969727	35.063477	3.751828
4.484863	26.909180	3.732309
0.000000	25.686035	3.714466
-5.708008	25.686035	3.693207
-8.562012	25.686035	3.663783
-7.746582	25.686035	3.623809
-4.892578	31.394043	3.574235
1.630859	28.132324	3.518975
6.931152	19.162598	3.463914
7.338867	17.124023	3.413705
8.969727	25.686035	3.370218
4.484863	22.424316	3.332978
10.600586	26.909180	3.301420
8.562012	24.462891	3.276821
5.708008	32.617187	3.258675
-2.446289	31.394043	3.242533
-4.077148	30.986328	3.222858
0.815430	20.793457	3.198118
0.407715	24.462891	3.170603
0.815430	27.316895	3.141646
4.077148	26.909180	3.112306
0.000000	16.308594	3.083382
0.815430	16.308594	3.053814
11.416016	16.716309	3.025805
10.600586	-0.815430	3.004881
7.746582	-15.493164	2.992352
3.669434	-19.570313	2.985065
-0.407715	-4.077148	2.978826
-1.223145	4.484863	2.970169
6.523437	18.347168	2.959747
1.630859	20.385742	2.950222
5.708008	26.909180	2.942099
1.630859	28.947754	2.935107
3.261719	28.540039	2.928562
0.407715	25.686035	2.921485
1.630859	27.724609	2.913159
0.815430	22.832031	2.903326
-1.223145	24.055176	2.891425
-3.261719	21.201172	2.875739
-3.261719	16.308594	2.854850
-0.815430	9.377441	2.829124
-2.446289	9.377441	2.799663
0.000000	11.416016	2.767095
3.261719	11.008301	2.733310
3.261719	22.832031	2.700755
1.630859	25.686035	2.669835
-3.261719	20.385742	2.638369
-2.446289	22.832031	2.603628
-0.815430	32.209473	2.565369
0.815430	33.024902	2.525291
0.000000	30.578613	2.484590
1.223145	36.286621	2.443659
-2.446289	30.578613	2.402014
-4.892578	23.239746	2.357484
-6.523437	13.454590	2.307567
-3.261719	12.231445	2.251919
-4.077148	13.046875	2.191927
-2.446289	25.278320	2.128710
0.000000	18.347168	2.063764
0.815430	0.000000	1.999164
3.261719	3.669434	1.936676
4.077148	6.931152	1.877983
8.562012	19.570313	1.825225
11.416016	28.947754	1.781507
6.931152	35.878906	1.747967
7.746582	35.063477	1.722784
0.000000	28.947754	1.702824
-2.446289	27.724609	1.683370
-3.261719	24.055176	1.660888
-3.261719	28.947754	1.634466
-4.077148	27.724609	1.603882
-7.338867	23.239746	1.568073
-3.261719	14.677734	1.526454
-1.223145	8.969727	1.481155
1.223145	13.046875	1.435174
-1.223145	14.270020	1.389769
0.815430	25.686035	1.344854
-2.446289	26.501465	1.300025
-5.708008	21.608887	1.253292
-12.231445	20.793457	1.200504
-3.261719	24.462891	1.140065
1.223145	28.132324	1.076561
2.446289	26.909180	1.015233
-1.630859	35.878906	0.956794
-11.823730	28.132324	0.896678
-11.008301	19.162598	0.828812
-11.823730	17.531738	0.751155
-9.377441	24.870605	0.664660
0.000000	22.832031	0.573354
0.000000	17.124023	0.483119
-2.854004	13.046875	0.395716
-0.815430	8.562012	0.310144
5.300293	11.416016	0.228338
1.630859	14.677734	0.152998
0.815430	24.055176	0.083375
-7.338867	21.608887	0.015747
-2.446289	27.724609	-0.053116
-4.892578	25.278320	-0.123302
-13.046875	14.677734	-0.196817
-11.008301	19.978027	-0.277827
-11.823730	14.677734	-0.367190
-9.377441	14.270020	-0.463685
-11.416016	15.900879	-0.566352
-17.124023	14.270020	-0.676730
-15.900879	3.261719	-0.797569
-11.823730	11.008301	-0.928052
-8.154297	19.978027	-1.064178
-8.969727	22.424316	-1.202764
-7.338867	23.647461	-1.342588
-8.969727	24.870605	-1.483234
-12.231445	26.909180	-1.625801
-10.600586	26.501465	-1.771767
-10.600586	27.316895	-1.920824
-8.154297	26.909180	-2.071605
-3.261719	24.870605	-2.221301
-0.407715	18.347168	-2.365843
1.630859	12.231445	-2.501992
3.261719	7.746582	-2.627737
0.815430	9.377441	-2.742665
0.000000	16.308594	-2.848219
0.000000	6.931152	-2.945783
5.708008	9.377441	-3.034331
8.562012	4.484863	-3.110431
6.523437	5.300293	-3.172102
5.300293	18.347168	-3.220577
5.708008	22.424316	-3.257473
1.630859	22.424316	-3.284456
-6.523437	23.239746	-3.306122
-14.270020	32.617187	-3.330079
-19.162598	35.878906	-3.363697
-19.162598	32.617187	-3.411106
-12.231445	25.686035	-3.471098
-11.416016	20.793457	-3.539183
-2.854004	14.270020	-3.610424
-8.969727	17.531738	-3.681498
-11.008301	15.493164	-3.753836
-7.338867	8.154297	-3.829020
-7.746582	5.708008	-3.905556
0.000000	12.231445	-3.980518
0.407715	13.046875	-4.049829
3.669434	26.909180	-4.110565
7.338867	28.947754	-4.160267
4.484863	28.947754	-4.197348
2.446289	29.763184	-4.223411
2.446289	38.325195	-4.240750
-2.446289	28.947754	-4.251562
-0.815430	15.900879	-4.258273
0.407715	17.531738	-4.261170
2.854004	19.570313	-4.258708
1.630859	21.201172	-4.249848
1.630859	16.308594	-4.234889
4.484863	4.892578	-4.213695
3.669434	-3.669434	-4.185285
15.493164	8.154297	-4.146589
17.531738	21.201172	-4.091580
10.600586	21.201172	-4.018699
6.931152	22.832031	-3.932903
6.931152	23.647461	-3.838615
8.969727	23.239746	-3.736748
5.300293	17.124023	-3.627645
3.669434	23.239746	-3.513569
0.000000	32.617187	-3.397650
-1.223145	31.394043	-3.282772
-8.154297	28.947754	-3.172434
-5.708008	11.008301	-3.069867
-2.446289	8.969727	-2.974506
4.484863	15.085449	-2.881947
7.746582	13.454590	-2.786806
8.154297	7.746582	-2.685657
11.008301	5.708008	-2.577060
10.600586	8.154297	-2.459965
11.823730	1.223145	-2.334024
15.900879	6.931152	-2.198164
12.639160	19.162598	-2.051371
12.639160	27.724609	-1.894936
11.823730	32.617187	-1.730533
1.630859	39.548340	-1.561800
-1.223145	41.179199	-1.395431
-3.261719	37.509766	-1.236205
-2.446289	33.432617	-1.085574
-4.892578	25.686035	-0.944054
-5.708008	16.308594	-0.812668
-8.562012	3.669434	-0.692915
-8.154297	-1.223145	-0.585999
-6.523437	-2.446289	-0.491560
1.630859	-0.407715	-0.406024
9.785156	14.270020	-0.322225
13.454590	9.377441	-0.232780
8.562012	14.270020	-0.135255
10.600586	17.124023	-0.031190
18.754883	15.900879	0.080937
20.385742	21.201172	0.205891
13.454590	38.732910	0.344138
5.300293	36.694336	0.489575
-1.223145	28.947754	0.633906
-1.223145	22.424316	0.771458
5.300293	24.462891	0.902395
10.600586	21.608887	1.031699
9.377441	8.562012	1.163484
7.338867	0.815430	1.297714
7.746582	1.630859	1.432852
8.969727	3.669434	1.568715
13.454590	5.300293	1.707055
9.785156	4.484863	1.849328
8.562012	10.600586	1.994135
8.562012	13.046875	2.139603
3.669434	16.716309	2.283942
6.931152	27.724609	2.425339
1.630859	31.394043	2.562814
3.669434	17.531738	2.695008
2.446289	-2.446289	2.821378
4.484863	5.300293	2.942486
3.669434	11.008301	3.058976
8.969727	15.085449	3.172435
8.969727	16.308594	3.285453
11.008301	18.754883	3.399857
8.154297	14.677734	3.515787
5.708008	18.347168	3.631445
1.223145	22.424316	3.743508
-2.446289	23.239746	3.848059
-1.223145	28.540039	3.942544
0.815430	27.724609	4.027533
9.377441	23.647461	4.107010
10.600586	21.201172	4.186496
9.785156	27.724609	4.268584
7.746582	24.055176	4.352428
6.523437	21.201172	4.436253
11.008301	26.909180	4.519972
-1.223145	30.986328	4.602324
5.708008	29.763184	4.679856
5.708008	29.763184	4.753136
8.562012	19.978027	4.824847
8.562012	-1.223145	4.896486
5.708008	0.000000	4.967981
7.746582	11.008301	5.038299
8.562012	20.793457	5.107955
10.600586	28.947754	5.178405
7.338867	14.270020	5.249968
4.892578	0.815430	5.320698
5.708008	7.746582	5.388629
5.300293	23.239746	5.453496
0.815430	34.655762	5.514192
1.630859	34.248047	5.568593
4.892578	33.432617	5.617033
8.562012	31.394043	5.662625
14.677734	23.239746	5.709839
12.639160	19.978027	5.762196
12.639160	16.716309	5.819941
15.900879	14.270020	5.883092
24.462891	17.124023	5.955299
27.724609	23.647461	6.042289
30.578613	21.201172	6.148013
30.986328	28.540039	6.273975
30.578613	31.801758	6.419981
23.239746	23.647461	6.582934
18.347168	22.832031	6.756649
9.377441	22.424316	6.933600
4.892578	25.686035	7.106278
6.931152	31.801758	7.270519
8.562012	33.024902	7.426854
13.454590	26.909180	7.578155
18.754883	27.724609	7.728881
18.754883	34.248047	7.882971
16.308594	27.724609	8.040859
14.677734	18.347168	8.200494
10.600586	9.377441	8.359059
11.416016	16.308594	8.514080
12.639160	15.900879	8.665232
21.201172	28.132324	8.815638
35.471191	35.878906	8.973743
37.102051	35.063477	9.149205
33.024902	27.724609	9.344588
22.424316	29.355469	9.554287
21.201172	32.617187	9.770470
18.754883	31.801758	9.988546
13.454590	38.732910	10.205202
14.677734	31.801758	10.417168
21.201172	32.617187	10.625399
19.570313	30.986328	10.833164
22.832031	24.055176	11.041980
23.239746	16.308594	11.252973
13.454590	14.677734	11.464323
6.931152	19.978027	11.669044
11.008301	24.870605	11.862294
15.493164	28.947754	12.045997
20.793457	29.763184	12.225212
19.570313	24.462891	12.403596
22.832031	28.132324	12.582605
21.608887	40.771484	12.763094
19.570313	41.179199	12.944485
18.754883	39.548340	13.124940
15.493164	35.878906	13.302490
10.600586	21.201172	13.473869
1.223145	19.978027	13.633285
4.077148	11.008301	13.775650
9.377441	11.008301	13.902015
18.754883	9.377441	14.018972
19.978027	17.124023	14.133463
27.316895	25.278320	14.250514
30.986328	36.694336	14.375026
31.801758	29.355469	14.510601
34.248047	23.647461	14.658629
26.909180	21.201172	14.817963
24.462891	32.209473	14.984067
19.978027	42.402344	15.152069
15.900879	38.732910	15.317636
15.900879	40.363770	15.477384
12.231445	44.033203	15.629375
4.892578	28.947754	15.769944
8.969727	19.978027	15.895712
15.085449	15.493164	16.009040
19.570313	12.639160	16.115833
20.793457	3.669434	16.220561
21.608887	8.969727	16.325240
18.754883	19.162598	16.429764
18.754883	23.239746	16.532745
15.900879	35.471191	16.632644
21.201172	24.055176	16.729389
20.385742	21.201172	16.824843
17.531738	26.909180	16.919178
13.454590	39.956055	17.009560
13.454590	40.363770	17.093182
11.823730	30.986328	17.168764
12.231445	27.724609	17.235839
16.308594	25.686035	17.295581
19.162598	23.647461	17.351258
21.608887	15.493164	17.406207
23.239746	17.531738	17.462868
30.986328	18.347168	17.524639
27.724609	27.316895	17.594863
23.239746	24.055176	17.672228
12.639160	8.154297	17.750331
8.969727	9.377441	17.821345
6.931152	23.239746	17.880268
15.085449	31.394043	17.927695
14.270020	34.655762	17.967629
7.338867	36.286621	18.000262
4.077148	39.548340	18.021177
12.231445	39.140625	18.029492
14.270020	43.625488	18.029732
18.347168	37.102051	18.026545
21.201172	33.432617	18.023519
19.978027	33.024902	18.022897
22.424316	24.055176	18.025322
25.278320	14.270020	18.032367
26.501465	15.900879	18.046277
25.278320	15.085449	18.067799
21.608887	9.377441	18.095280
25.278320	15.900879	18.127135
32.617187	20.793457	18.166024
32.209473	24.870605	18.216301
35.471191	27.316895	18.279968
28.947754	27.724609	18.356242
26.909180	22.832031	18.441367
17.531738	28.540039	18.529605
15.493164	35.471191	18.614724
12.639160	25.686035	18.692491
7.746582	12.231445	18.759839
11.823730	9.377441	18.814918
14.677734	15.900879	18.859835
22.424316	26.909180	18.899607
16.308594	29.763184	18.937639
20.793457	25.686035	18.973970
23.239746	23.239746	19.010030
23.647461	28.947754	19.048366
27.724609	36.286621	19.090761
32.209473	37.509766	19.140414
27.316895	29.763184	19.199086
35.471191	27.724609	19.267056
32.209473	22.832031	19.345975
30.578613	20.793457	19.435261
26.501465	22.832031	19.531569
27.316895	17.124023	19.632121
31.801758	24.055176	19.737155
35.471191	24.055176	19.849893
33.024902	26.909180	19.972329
35.063477	16.716309	20.104111
35.471191	4.484863	20.245211
42.402344	8.562012	20.397630
45.664062	11.416016	20.565300
48.925781	13.454590	20.751745
44.848633	17.531738	20.957417
46.887207	20.793457	21.180480
44.848633	31.394043	21.419375
43.625488	30.578613	21.672278
39.548340	21.608887	21.936039
38.325195	22.424316	22.207103
32.617187	33.432617	22.481643
26.909180	38.325195	22.754392
26.501465	23.239746	23.020539
29.355469	17.124023	23.279141
35.878906	6.931152	23.533373
39.140625	-4.892578	23.788201
36.286621	-2.446289	24.046006
29.763184	7.746582	24.304027
32.209473	8.562012	24.558449
27.316895	18.347168	24.807453
30.578613	28.132324	25.049953
28.132324	32.209473	25.285774
29.763184	35.878906	25.514971
33.432617	41.179199	25.738782
35.063477	43.217773	25.960000
35.063477	28.132324	26.180330
33.024902	21.201172	26.399475
31.394043	13.454590	26.615759
31.394043	9.377441	26.827691
30.578613	9.377441	27.034604
35.063477	15.493164	27.237257
32.617187	5.708008	27.437129
34.655762	8.154297	27.634566
32.209473	11.416016	27.829256
32.209473	11.008301	28.020368
28.132324	15.493164	28.206151
20.385742	18.347168	28.382474
17.531738	21.201172	28.543690
16.308594	37.102051	28.686458
25.278320	41.179199	28.812429
24.462891	33.432617	28.926407
25.278320	19.978027	29.030959
23.647461	15.900879	29.126187
19.570313	15.493164	29.210701
19.978027	22.424316	29.282433
20.793457	28.947754	29.341246
26.501465	31.801758	29.389697
26.909180	15.493164	29.431526
30.578613	11.008301	29.469665
29.355469	0.407715	29.505956
28.132324	-11.823730	29.540445
24.870605	-4.892578	29.571356
31.394043	2.854004	29.598497
31.394043	15.493164	29.624581
32.209473	18.754883	29.651557
39.956055	25.686035	29.681819
34.248047	21.201172	29.717971
31.394043	21.201172	29.757995
27.316895	27.724609	29.797603
28.132324	25.686035	29.834094
29.355469	23.239746	29.867251
27.316895	21.201172	29.897511
26.501465	15.900879	29.924009
30.578613	9.785156	29.946996
31.394043	15.900879	29.968748
33.432617	20.385742	29.991333
34.248047	15.900879	30.016189
36.286621	20.793457	30.044687
36.694336	13.046875	30.078024
37.509766	15.085449	30.116910
33.024902	19.162598	30.160409
34.655762	29.763184	30.206554
38.325195	28.132324	30.255818
41.586914	28.540039	30.311221
39.956055	30.986328	30.374677
38.325195	20.385742	30.445325
31.801758	22.424316	30.519766
36.286621	18.754883	30.595073
39.548340	18.754883	30.672627
41.586914	16.308594	30.755671
38.325195	16.308594	30.844940
39.548340	5.300293	30.939203
35.471191	4.077148	31.036848
36.286621	12.231445	31.136013
38.325195	24.055176	31.236418
37.509766	32.617187	31.338972
39.956055	39.140625	31.444219
41.179199	45.256348	31.553320
42.402344	40.771484	31.667592
42.402344	37.509766	31.787643
45.664062	33.432617	31.914265
49.741211	29.355469	32.049811
48.110352	24.870605	32.196305
42.402344	19.978027	32.351812
41.179199	9.377441	32.512010
44.848633	3.669434	32.675342
48.925781	18.754883	32.844171
55.856934	19.162598	33.022997
55.449219	14.270020	33.215784
52.187500	19.162598	33.422448
57.487793	24.870605	33.641714
53.002930	28.132324	33.873530
48.925781	21.201172	34.115049
47.702637	24.055176	34.361935
50.964355	25.686035	34.612831
48.110352	29.763184	34.867932
51.779785	33.432617	35.127102
56.672363	24.055176	35.392347
60.749512	19.978027	35.667718
65.642090	15.493164	35.957181
66.865234	15.900879	36.263754
66.865234	8.562012	36.588269
71.757812	12.639160	36.931177
71.350098	13.046875	37.293749
64.418945	12.639160	37.673963
63.603516	18.347168	38.066656
56.264648	25.686035	38.466675
57.080078	24.055176	38.869410
54.633789	26.909180	39.272174
51.372070	37.509766	39.672615
51.372070	35.063477	40.068059
53.410645	34.248047	40.457999
49.333496	36.694336	40.842271
44.440918	23.239746	41.217840
48.925781	17.124023	41.582239
47.702637	11.416016	41.936343
44.033203	19.162598	42.279818
42.810059	18.347168	42.610213
42.810059	27.316895	42.926169
43.625488	28.132324	43.227899
40.771484	24.055176	43.515411
40.363770	28.132324	43.787654
37.102051	25.686035	44.043213
44.848633	32.617187	44.282790
48.925781	37.102051	44.511141
52.595215	40.771484	44.733677
55.856934	34.248047	44.954282
50.964355	27.724609	45.174205
42.402344	32.617187	45.389282
37.102051	33.432617	45.592332
31.801758	36.286621	45.777259
29.355469	28.947754	45.939872
28.132324	19.162598	46.078011
30.986328	14.677734	46.192105
32.209473	13.046875	46.284623
31.394043	17.124023	46.357624
34.248047	22.424316	46.412557
34.248047	31.801758	46.451470
44.440918	29.763184	46.478474
44.033203	26.909180	46.499329
39.548340	39.140625	46.515577
41.179199	44.440918	46.525374
35.471191	38.732910	46.527182
32.209473	28.947754	46.517933
22.424316	28.947754	46.492355
29.355469	23.647461	46.447038
34.248047	18.754883	46.385280
37.102051	10.600586	46.313031
38.732910	9.377441	46.234057
34.655762	10.600586	46.149280
39.956055	15.900879	46.058731
42.810059	16.716309	45.965230
40.771484	11.416016	45.871365
44.033203	24.870605	45.777788
45.256348	37.102051	45.686082
42.402344	34.248047	45.597009
48.110352	34.655762	45.510865
43.625488	46.479492	45.428678
46.887207	49.333496	45.350355
41.179199	39.956055	45.274840
45.256348	33.024902	45.201014
51.779785	21.201172	45.131235
53.818359	20.793457	45.070425
53.002930	19.570313	45.020812
44.033203	15.493164	44.979693
41.179199	11.008301	44.941050
40.363770	16.308594	44.900740
44.033203	19.978027	44.858667
38.325195	22.832031	44.815171
34.248047	28.540039	44.767254
32.209473	19.162598	44.710991
34.248047	19.162598	44.645213
31.801758	28.947754	44.570312
34.248047	35.878906	44.486674
35.471191	41.179199	44.395746
34.655762	36.694336	44.299026
31.394043	26.501465	44.195913
31.801758	13.046875	44.084985
36.286621	14.677734	43.967247
50.964355	15.493164	43.849452
49.741211	3.669434	43.740294
45.256348	-8.969727	43.641531
44.033203	-4.892578	43.549797
44.033203	0.000000	43.463048
44.848633	1.630859	43.381044
44.033203	13.046875	43.303870
41.586914	22.832031	43.230530
42.810059	29.763184	43.159751
41.179199	28.540039	43.091062
41.586914	35.878906	43.024012
35.878906	27.724609	42.956884
29.355469	27.724609	42.885146
22.832031	23.239746	42.802443
19.162598	11.416016	42.703252
21.201172	18.347168	42.585321
26.501465	15.085449	42.451121
26.501465	11.416016	42.304850
25.278320	0.000000	42.148281
26.909180	5.708008	41.981830
22.424316	16.308594	41.805478
23.239746	18.347168	41.618144
23.647461	13.454590	41.419880
16.716309	11.416016	41.209999
20.793457	17.124023	40.986783
25.278320	23.647461	40.752570
26.501465	32.617187	40.511855
24.462891	33.432617	40.266468
24.870605	30.986328	40.016238
29.355469	35.063477	39.762504
29.763184	13.454590	39.508261
34.248047	12.231445	39.256370
35.063477	7.338867	39.009667
35.063477	0.407715	38.769782
33.024902	-8.969727	38.536337
35.063477	-4.484863	38.308751
34.248047	1.630859	38.087317
35.063477	3.669434	37.872312
34.655762	12.231445	37.663777
29.355469	18.347168	37.460246
22.424316	25.278320	37.256992
24.055176	23.239746	37.049613
14.677734	24.870605	36.835085
21.201172	25.686035	36.611173
24.462891	28.132324	36.380359
26.501465	30.578613	36.147160
24.055176	28.132324	35.913214
21.608887	24.870605	35.677410
18.754883	19.978027	35.437401
20.385742	15.493164	35.191917
22.424316	9.377441	34.942107
28.132324	14.677734	34.691427
28.132324	24.055176	34.443714
28.132324	20.385742	34.200595
26.501465	22.832031	33.961688
18.347168	13.046875	33.724054
15.493164	8.562012	33.482423
21.608887	13.046875	33.235196
27.316895	26.501465	32.986848
26.909180	34.655762	32.742189
26.909180	32.617187	32.502594
29.763184	34.248047	32.268729
23.647461	24.870605	32.040472
22.832031	19.162598	31.815132
22.424316	12.231445	31.590671
24.055176	11.008301	31.367285
28.947754	4.077148	31.147195
28.947754	2.446289	30.933482
23.239746	5.300293	30.725867
20.385742	5.300293	30.520544
20.385742	20.793457	30.314625
24.055176	25.278320	30.108568
26.501465	33.024902	29.905167
21.201172	32.617187	29.705371
24.462891	42.402344	29.507942
22.424316	37.102051	29.312765
26.501465	24.870605	29.120802
24.055176	22.832031	28.933071
15.493164	21.608887	28.747114
19.978027	27.316895	28.559085
20.385742	38.732910	28.369489
19.570313	26.909180	28.179773
15.493164	12.231445	27.988752
17.124023	15.493164	27.794755
18.754883	13.046875	27.598337
19.570313	5.708008	27.401313
22.424316	5.708008	27.205524
15.900879	15.493164	27.011120
15.493164	29.355469	26.815457
12.231445	33.432617	26.616014
9.785156	36.694336	26.410708
9.377441	25.686035	26.197772
8.562012	21.201172	25.976703
8.562012	23.239746	25.747567
11.823730	24.870605	25.511614
14.677734	21.201172	25.271862
15.900879	21.201172	25.031415
14.677734	25.278320	24.791626
16.308594	17.124023	24.552826
15.900879	15.085449	24.315649
19.570313	7.746582	24.081448
18.754883	-2.446289	23.851941
17.531738	7.338867	23.627371
11.823730	16.716309	23.405395
12.639160	32.617187	23.183021
1.630859	32.617187	22.956539
-2.854004	26.909180	22.719625
-2.446289	14.677734	22.467860
1.630859	0.815430	22.202289
12.231445	2.854004	21.928850
12.639160	6.523437	21.654935
10.600586	7.746582	21.383316
8.562012	12.231445	21.112674
6.931152	19.570313	20.841216
-0.815430	19.978027	20.565837
-3.261719	15.900879	20.281861
-4.484863	11.823730	19.986337
3.669434	6.931152	19.680954
12.639160	14.677734	19.372799
8.562012	17.531738	19.068105
8.562012	15.900879	18.767250
5.300293	21.201172	18.468447
5.708008	34.655762	18.170312
8.562012	35.471191	17.873235
4.484863	29.763184	17.578014
5.708008	30.986328	17.283806
6.931152	23.239746	16.990766
4.484863	20.385742	16.699471
2.854004	18.347168	16.408755
2.446289	12.231445	16.117291
10.600586	0.407715	15.826919
8.562012	0.815430	15.541535
6.931152	6.931152	15.261857
7.746582	4.892578	14.986741
7.746582	14.677734	14.716270
5.708008	17.531738	14.450196
5.708008	22.424316	14.187528
2.854004	24.870605	13.927103
1.630859	40.363770	13.667273
-0.815430	37.509766	13.406247
-1.223145	28.540039	13.142642
2.854004	21.201172	12.877065
0.000000	9.377441	12.611170
2.446289	2.854004	12.345465
3.669434	0.815430	12.081076
2.446289	5.300293	11.819187
8.562012	9.377441	11.561245
8.969727	7.746582	11.310340
8.562012	4.484863	11.068131
11.008301	-2.446289	10.835013
3.669434	0.407715	10.610071
4.077148	10.600586	10.390064
1.630859	19.978027	10.172643
3.261719	33.024902	9.957170
3.261719	40.363770	9.743997
9.377441	40.771484	9.535279
2.446289	35.471191	9.332426
3.261719	36.286621	9.133564
1.630859	24.055176	8.936901
4.484863	28.132324	8.742651
7.338867	22.832031	8.552729
1.223145	16.716309	8.367781
6.931152	11.416016	8.186813
11.008301	16.716309	8.012297
16.308594	24.870605	7.849159
19.570313	19.162598	7.701766
16.716309	21.201172	7.571917
9.377441	17.531738	7.456382
4.077148	17.124023	7.348637
7.338867	11.008301	7.244585
6.523437	15.493164	7.144276
11.823730	26.909180	7.049467
7.746582	35.063477	6.961508
8.154297	40.363770	6.879537
18.754883	35.063477	6.805298
26.501465	24.462891	6.746229
19.162598	4.077148	6.706631
15.493164	-0.815430	6.682881
11.416016	0.000000	6.669356
8.562012	9.785156	6.661754
12.639160	19.162598	6.658313
17.531738	21.201172	6.661527
20.385742	24.870605	6.675482
16.308594	25.278320	6.701389
11.823730	26.909180	6.736111
7.746582	23.239746	6.774712
10.600586	25.686035	6.814406
14.270020	28.132324	6.856493
15.085449	28.132324	6.903714
15.493164	24.055176	6.957284
15.493164	24.055176	7.017290
16.308594	30.986328	7.083696
12.639160	28.132324	7.155608
7.746582	23.647461	7.229702
9.377441	15.085449	7.302696
8.969727	8.969727	7.374026
9.377441	0.815430	7.444015
6.523437	0.000000	7.512008
8.562012	18.347168	7.577165
10.600586	24.870605	7.640405
6.931152	30.986328	7.702391
4.484863	28.947754	7.761078
9.785156	39.548340	7.815699
7.338867	28.540039	7.867879
8.562012	21.608887	7.918103
7.746582	27.724609	7.966191
5.708008	19.978027	8.011549
6.523437	22.832031	8.053181
8.154297	19.570313	8.091533
4.484863	14.677734	8.126820
4.484863	15.900879	8.157646
7.338867	18.754883	8.183966
5.708008	18.754883	8.207027
2.446289	15.085449	8.225988
10.600586	19.978027	8.241016
3.669434	22.832031	8.253880
4.484863	27.724609	8.263379
1.630859	28.132324	8.267512
8.562012	39.140625	8.267056
8.969727	35.471191	8.265217
3.669434	36.286621	8.262701
0.815430	35.063477	8.256116
0.407715	28.132324	8.242654
2.854004	19.978027	8.222319
9.377441	18.347168	8.198335
16.716309	9.785156	8.176892
11.008301	1.223145	8.161966
16.308594	9.785156	8.153598
16.308594	29.355469	8.152787
11.416016	27.724609	8.159296
11.416016	19.978027	8.170218
15.493164	23.239746	8.185127
7.746582	38.732910	8.203933
11.416016	39.140625	8.224405
8.154297	37.509766	8.245482
6.931152	27.724609	8.266044
7.746582	26.501465	8.284807
7.338867	33.432617	8.301833
12.639160	31.801758	8.318575
12.639160	26.909180	8.337706
6.931152	21.608887	8.358990
5.300293	15.900879	8.378881
7.338867	5.300293	8.395599
13.046875	4.077148	8.411413
13.454590	13.046875	8.429990
14.677734	11.416016	8.453218
17.124023	19.978027	8.482255
16.716309	24.462891	8.518307
22.424316	24.055176	8.562947
18.347168	28.540039	8.617557
23.647461	37.509766	8.682380
17.531738	35.471191	8.756992
19.570313	28.132324	8.839584
19.570313	26.909180	8.929174
23.239746	24.870605	9.026850
25.278320	33.432617	9.134605
26.501465	33.024902	9.254226
27.316895	26.501465	9.386442
24.055176	19.978027	9.530436
23.647461	14.677734	9.683918
26.909180	13.454590	9.846080
24.055176	7.338867	10.017217
26.501465	14.677734	10.196742
24.055176	16.308594	10.383979
26.909180	14.677734	10.578488
30.578613	20.385742	10.781558
34.655762	35.878906	10.996335
40.363770	33.432617	11.226667
37.509766	32.209473	11.474930
34.655762	35.471191	11.739299
33.432617	23.239746	12.016196
32.209473	24.055176	12.303049
43.217773	31.394043	12.601034
36.694336	30.986328	12.913082
37.102051	21.201172	13.237798
29.763184	17.124023	13.570840
32.209473	5.708008	13.908376
21.201172	-8.154297	14.246312
25.686035	2.854004	14.580313
21.608887	6.931152	14.908599
23.239746	22.424316	15.230549
26.909180	30.986328	15.546862
27.724609	50.556641	15.860030
30.578613	47.702637	16.172010
29.763184	33.432617	16.484027
28.132324	30.578613	16.795644
27.316895	19.162598	17.105266
28.132324	18.347168	17.412017
25.686035	7.746582	17.715276
24.870605	6.931152	18.013596
22.424316	6.931152	18.305175
25.686035	16.716309	18.589369
34.248047	21.201172	18.869534
31.394043	14.677734	19.150164
27.316895	19.162598	19.430622
27.316895	8.562012	19.707728
23.647461	6.931152	19.979309
16.308594	11.416016	20.241475
11.008301	19.162598	20.488163
19.570313	30.986328	20.717354
23.239746	32.209473	20.933668
20.793457	34.248047	21.140998
19.978027	29.763184	21.338995
17.124023	15.900879	21.526055
14.677734	-8.154297	21.700120
18.754883	-6.931152	21.860633
21.608887	1.630859	22.010287
19.570313	21.201172	22.151453
17.124023	31.801758	22.283403
17.124023	19.978027	22.404596
14.677734	17.531738	22.514105
17.531738	14.270020	22.611810
12.639160	14.677734	22.697715
11.823730	15.900879	22.770229
13.454590	27.724609	22.828598
15.493164	24.462891	22.874580
10.600586	22.424316	22.908901
9.377441	27.316895	22.929697
14.270020	18.347168	22.936918
24.870605	19.570313	22.936204
26.909180	18.754883	22.935306
22.832031	21.201172	22.937018
16.308594	10.600586	22.937899
14.677734	10.600586	22.933060
12.231445	13.046875	22.919552
10.600586	7.338867	22.895639
10.600586	8.562012	22.860319
11.823730	9.785156	22.814039
11.823730	21.201172	22.757987
12.231445	22.424316	22.693092
7.338867	21.608887	22.618754
5.300293	19.162598	22.532478
10.600586	22.424316	22.433932
14.270020	25.278320	22.326990
14.677734	15.900879	22.215571
13.454590	21.201172	22.100852
19.162598	16.716309	21.984067
16.308594	12.639160	21.867360
12.231445	1.630859	21.749780
9.377441	5.300293	21.627847
17.531738	15.493164	21.501459
23.239746	16.308594	21.375985
22.832031	15.085449	21.256548
20.385742	12.231445	21.143643
23.647461	11.823730	21.036557
26.501465	17.531738	20.936960
26.501465	26.501465	20.846974
18.754883	27.316895	20.764971
15.493164	26.909180	20.685751
14.270020	30.986328	20.605200
15.900879	29.763184	20.522391
18.347168	25.278320	20.438693
20.793457	21.201172	20.356591
19.162598	17.124023	20.277596
21.608887	16.308594	20.202081
23.647461	11.416016	20.131358
23.647461	11.416016	20.067000
23.647461	4.077148	20.009319
24.462891	8.562012	19.958290
25.686035	4.484863	19.914413
24.462891	11.008301	19.877947
26.501465	19.162598	19.848807
28.132324	34.655762	19.827871
31.394043	38.732910	19.817038
31.801758	41.179199	19.818110
34.248047	34.655762	19.832262
29.355469	22.424316	19.858992
31.801758	16.308594	19.896416
33.024902	21.201172	19.944334
29.763184	8.154297	20.002646
27.316895	-2.854004	20.068786
32.209473	5.300293	20.141473
28.947754	12.231445	20.221404
26.909180	16.308594	20.307205
30.578613	15.493164	20.397553
29.763184	17.124023	20.493327
34.655762	17.124023	20.596002
40.363770	18.347168	20.709011
37.509766	24.055176	20.835302
37.509766	19.570313	20.974141
28.947754	18.347168	21.121815
27.724609	19.570313	21.272948
22.832031	18.754883	21.423047
22.424316	22.424316	21.569004
23.239746	17.124023	21.709567
28.132324	13.046875	21.846439
29.355469	3.669434	21.982750
30.578613	7.746582	22.120631
27.724609	12.231445	22.260081
28.132324	8.562012	22.399810
32.209473	13.046875	22.540195
34.655762	13.454590	22.683950
25.686035	19.978027	22.830772
24.462891	31.801758	22.975975
24.462891	27.316895	23.116483
27.316895	25.686035	23.252788
26.501465	19.570313	23.386223
29.355469	21.201172	23.517849
29.763184	19.570313	23.649002
26.501465	21.608887	23.779672
22.424316	22.832031	23.907067
17.531738	20.793457	24.026917
14.270020	6.931152	24.134940
17.531738	4.484863	24.229416
20.385742	5.300293	24.312466
11.823730	10.600586	24.384627
5.300293	12.231445	24.440856
0.815430	7.746582	24.474961
9.377441	4.484863	24.486087
4.077148	14.677734	24.477192
5.300293	32.617187	24.448978
4.892578	35.878906	24.401494
8.969727	30.578613	24.336840
8.154297	27.724609	24.257684
6.523437	19.570313	24.164980
6.931152	15.900879	24.058475
8.154297	15.085449	23.939014
8.562012	16.308594	23.808167
8.969727	9.377441	23.667228
7.338867	18.754883	23.516697
11.008301	20.793457	23.357380
9.785156	15.900879	23.191022
9.377441	19.162598	23.018330
13.454590	14.677734	22.840308
26.909180	11.823730	22.662955
23.647461	19.162598	22.493708
20.385742	30.986328	22.333343
14.677734	23.647461	22.177556
12.231445	18.754883	22.021804
4.077148	24.870605	21.861323
5.708008	25.278320	21.691998
7.746582	25.278320	21.513658
7.338867	8.969727	21.328290
4.077148	1.630859	21.135873
2.446289	-4.892578	20.934679
11.008301	8.154297	20.725853
7.338867	24.462891	20.513066
16.308594	24.055176	20.299398
23.647461	26.909180	20.090791
24.870605	26.501465	19.893767
16.716309	28.540039	19.708437
11.823730	27.724609	19.529217
13.454590	36.286621	19.351736
21.201172	41.179199	19.177708
18.754883	36.694336	19.011014
20.385742	35.063477	18.852675
24.462891	33.432617	18.703765
19.570313	31.801758	18.565297
17.531738	19.162598	18.434910
15.085449	11.008301	18.309375
13.454590	12.231445	18.186355
19.162598	20.385742	18.065866
27.316895	24.055176	17.952632
29.763184	18.347168	17.852868
25.686035	22.424316	17.768427
19.570313	21.608887	17.695595
17.531738	28.947754	17.629105
24.462891	40.771484	17.567882
25.278320	48.518066	17.515072
25.278320	43.625488	17.472597
23.239746	41.179199	17.439714
25.686035	39.548340	17.415593
24.870605	36.694336	17.400399
21.201172	32.617187	17.392992
19.570313	29.763184	17.390459
25.278320	26.909180	17.392258
22.424316	26.909180	17.400013
27.316895	34.655762	17.414731
29.355469	37.102051	17.438437
21.608887	34.655762	17.471020
14.270020	39.548340	17.506582
15.900879	36.694336	17.539488
13.046875	35.471191	17.568003
14.677734	29.763184	17.591653
13.454590	31.801758	17.610420
11.823730	30.986328	17.623862
8.562012	31.801758	17.630173
5.708008	38.732910	17.626776
8.562012	37.102051	17.612509
14.677734	34.655762	17.590236
20.385742	31.801758	17.565804
21.201172	21.608887	17.544158
19.570313	8.562012	17.526692
19.978027	8.562012	17.512700
20.793457	22.424316	17.502040
27.724609	29.355469	17.496928
26.909180	45.256348	17.500760
25.278320	41.179199	17.514090
24.870605	35.063477	17.535295
27.724609	43.625488	17.564104
28.132324	42.810059	17.601641
25.686035	37.509766	17.647792
28.540039	32.617187	17.701691
27.316895	33.432617	17.763464
20.385742	25.686035	17.830978
19.570313	21.608887	17.899723
14.677734	19.162598	17.966037
8.562012	24.055176	18.025570
9.377441	21.201172	18.074282
15.900879	25.686035	18.113148
17.531738	19.162598	18.146643
15.493164	13.046875	18.177010
13.454590	16.308594	18.203181
8.562012	23.239746	18.222427
8.969727	32.617187	18.232042
15.493164	41.586914	18.233096
11.416016	43.217773	18.228439
10.600586	28.947754	18.217691
13.046875	33.432617	18.200283
11.416016	38.732910	18.177178
6.931152	35.878906	18.147266
5.708008	34.248047	18.107781
12.231445	31.394043	18.059091
11.823730	28.540039	18.004663
17.531738	23.239746	17.947813
21.608887	24.870605	17.892674
24.462891	27.724609	17.843617
20.793457	27.316895	17.802024
20.385742	30.986328	17.766316
15.493164	34.655762	17.733801
12.231445	31.394043	17.700833
8.562012	32.617187	17.663505
5.300293	39.548340	17.618412
5.300293	41.586914	17.563275
5.708008	35.878906	17.497859
0.815430	38.732910	17.421627
0.000000	32.617187	17.332471
1.223145	31.801758	17.229679
8.154297	25.686035	17.116224
11.823730	17.124023	16.997638
11.823730	23.239746	16.878024
8.154297	31.801758	16.757556
3.669434	35.878906	16.633293
5.708008	27.316895	16.502752
7.338867	29.355469	16.366677
13.454590	28.947754	16.228460
13.046875	33.024902	16.091878
14.270020	32.209473	15.958714
12.639160	38.732910	15.829060
9.785156	33.432617	15.701607
9.377441	34.248047	15.574357
11.823730	34.655762	15.447110
13.454590	21.608887	15.321608
16.308594	19.978027	15.200153
13.454590	15.493164	15.083867
11.416016	12.231445	14.971352
15.493164	10.600586	14.861806
12.639160	19.570313	14.756067
22.424316	33.432617	14.656215
22.832031	35.878906	14.566587
27.724609	36.286621	14.490884
22.832031	30.986328	14.429945
22.832031	28.540039	14.381882
21.608887	29.355469	14.344555
22.424316	35.471191	14.317087
29.763184	35.878906	14.301097
34.248047	32.617187	14.301328
28.540039	36.694336	14.319830
28.540039	29.763184	14.353935
25.686035	33.432617	14.400651
30.578613	35.878906	14.459144
33.432617	36.694336	14.531388
29.763184	31.801758	14.618505
28.132324	36.694336	14.718123
32.209473	29.763184	14.828822
30.578613	11.008301	14.951268
27.724609	13.454590	15.084264
28.540039	26.909180	15.225480
27.316895	38.732910	15.373752
25.278320	28.540039	15.527640
23.239746	27.316895	15.684800
24.055176	22.832031	15.843527
31.394043	28.132324	16.005403
39.140625	39.140625	16.176221
39.548340	29.763184	16.361501
39.956055	25.278320	16.562748
37.102051	30.578613	16.778600
39.140625	26.909180	17.007311
39.140625	19.162598	17.248380
44.033203	16.716309	17.502813
41.179199	14.677734	17.771559
44.033203	18.347168	18.054222
43.217773	28.132324	18.350410
41.179199	28.540039	18.658985
34.655762	32.617187	18.976063
37.102051	33.024902	19.297604
30.986328	33.432617	19.621033
30.578613	27.724609	19.943249
29.355469	31.394043	20.261824
31.394043	39.140625	20.576376
37.509766	27.724609	20.889112
42.402344	23.239746	21.204820
48.925781	20.385742	21.528923
46.887207	9.377441	21.864878
40.363770	10.600586	22.210724
33.024902	12.639160	22.559759
36.694336	15.900879	22.906865
37.102051	11.823730	23.251874
34.655762	17.531738	23.595052
30.578613	21.608887	23.933873
32.617187	26.501465	24.265929
27.316895	35.471191	24.589786
27.316895	46.479492	24.903225
29.355469	46.479492	25.205533
27.724609	39.140625	25.497539
31.394043	39.956055	25.780045
28.947754	37.102051	26.054043
30.578613	38.732910	26.319736
32.209473	37.102051	26.577864
30.578613	18.754883	26.829357
35.471191	10.600586	27.075106
28.132324	15.493164	27.315329
30.986328	15.900879	27.548203
36.286621	21.201172	27.774779
41.179199	34.655762	27.999925
26.501465	27.724609	28.223576
17.124023	24.870605	28.436675
15.085449	23.239746	28.630159
14.677734	31.801758	28.801072
15.085449	20.385742	28.949614
16.308594	23.239746	29.077072
14.270020	22.832031	29.184480
11.008301	6.931152	29.271029
12.231445	-5.708008	29.335645
15.493164	6.931152	29.379895
16.308594	19.162598	29.406907
22.424316	17.124023	29.420323
28.947754	25.278320	29.425888
31.394043	25.278320	29.429627
27.724609	21.201172	29.433654
32.209473	22.424316	29.437845
22.424316	24.870605	29.441010
23.239746	23.239746	29.439443
19.570313	26.501465	29.430255
17.531738	36.694336	29.411551
14.677734	27.724609	29.380998
13.454590	25.686035	29.336808
16.308594	21.608887	29.279003
19.570313	23.239746	29.210296
19.162598	24.055176	29.133609
20.385742	22.424316	29.050349
24.870605	16.308594	28.962614
28.132324	8.969727	28.874233
28.132324	12.231445	28.788221
24.870605	10.600586	28.704561
15.493164	14.677734	28.619056
7.746582	17.531738	28.524062
7.746582	26.909180	28.413576
7.338867	31.801758	28.286273
10.600586	30.986328	28.143692
15.085449	31.394043	27.989460
16.308594	28.947754	27.827801
16.716309	32.617187	27.661149
17.531738	42.402344	27.490656
14.677734	37.102051	27.316460
16.308594	29.355469	27.138056
17.531738	22.424316	26.956249
24.462891	24.462891	26.774278
28.540039	33.432617	26.597373
28.132324	42.402344	26.429349
26.909180	37.102051	26.270513
27.724609	27.316895	26.120081
23.239746	17.124023	25.976760
15.900879	9.377441	25.836307
15.085449	8.969727	25.693493
13.454590	18.754883	25.545789
14.270020	30.986328	25.392717
15.085449	32.617187	25.234893
12.639160	31.801758	25.072700
13.454590	33.432617	24.905648
9.785156	30.986328	24.732956
12.639160	29.763184	24.554096
13.454590	25.278320	24.370286
18.754883	15.493164	24.184514
21.201172	11.416016	24.000705
21.608887	19.570313	23.821747
23.647461	24.870605	23.649002
21.201172	23.239746	23.482905
24.462891	34.248047	23.323437
25.278320	26.909180	23.171749
19.570313	27.724609	23.027435
14.677734	29.763184	22.886242
9.377441	42.402344	22.742714
