27.316895	34.248047	21.776127
24.462891	44.848633	21.896140
19.570313	56.264648	22.012876
15.085449	64.826660	22.121863
14.677734	76.242676	22.219590
23.647461	69.719238	22.307426
30.986328	61.157227	22.392262
27.316895	57.080078	22.479392
20.385742	58.303223	22.566800
23.647461	48.925781	22.650633
25.686035	40.771484	22.731394
30.578613	48.110352	22.812349
33.432617	45.256348	22.897260
34.248047	48.518066	22.988859
34.248047	53.002930	23.087923
36.286621	54.633789	23.194761
34.655762	53.818359	23.309549
32.617187	56.264648	23.430951
27.724609	69.311523	23.555755
29.355469	68.088379	23.680997
27.316895	64.011230	23.805563
28.132324	66.865234	23.928924
25.278320	60.749512	24.050147
28.540039	55.041504	24.168774
29.355469	53.002930	24.285976
26.501465	54.633789	24.402231
25.686035	48.925781	24.515958
26.909180	52.595215	24.626298
35.471191	53.002930	24.735963
31.801758	53.818359	24.848727
32.209473	56.264648	24.964758
32.209473	55.449219	25.083036
26.909180	63.195801	25.202050
27.316895	68.903809	25.318965
27.316895	72.165527	25.432574
24.462891	64.418945	25.542265
29.355469	62.788086	25.647887
35.471191	66.457520	25.752939
29.355469	58.303223	25.860229
29.355469	59.526367	25.967937
9.785156	36.694336	26.069183
1.223145	30.578613	26.151622
3.669434	27.316895	26.207024
13.454590	35.063477	26.238162
11.823730	32.617187	26.251457
15.493164	26.501465	26.250382
13.046875	23.239746	26.236447
9.377441	24.055176	26.208962
7.746582	13.046875	26.165573
5.300293	16.716309	26.104581
4.892578	13.046875	26.025029
6.931152	6.523437	25.927519
9.377441	0.815430	25.814575
13.454590	21.201172	25.689905
15.493164	28.947754	25.557493
11.008301	26.909180	25.418792
9.377441	21.201172	25.271984
15.085449	21.608887	25.117055
16.716309	28.947754	24.957535
16.308594	33.432617	24.796048
18.347168	47.702637	24.633603
8.562012	45.256348	24.468808
3.669434	45.256348	24.296051
5.300293	25.686035	24.111163
2.854004	11.823730	23.913816
5.708008	18.347168	23.704675
8.969727	17.124023	23.486209
13.454590	18.347168	23.262710
11.416016	17.531738	23.037318
16.308594	27.316895	22.811750
11.416016	24.870605	22.587000
8.154297	26.909180	22.361124
8.154297	27.316895	22.131413
6.523437	19.978027	21.896996
11.416016	29.763184	21.658760
13.454590	43.625488	21.419808
15.900879	39.548340	21.183422
8.562012	30.986328	20.949626
-0.815430	31.801758	20.712872
0.815430	31.801758	20.467117
2.854004	28.540039	20.211956
7.338867	22.424316	19.950762
3.669434	24.055176	19.686009
4.077148	15.085449	19.417494
2.446289	9.377441	19.144493
6.931152	8.969727	18.867923
9.785156	6.523437	18.590914
0.000000	12.231445	18.313885
-0.407715	14.677734	18.032630
0.000000	17.124023	17.744957
-5.300293	17.124023	17.450174
-3.261719	13.454590	17.146772
0.407715	6.931152	16.836102
4.077148	7.746582	16.522248
6.931152	29.355469	16.209325
0.815430	43.625488	15.898476
7.338867	44.848633	15.589184
2.446289	30.986328	15.282240
2.446289	18.347168	14.977003
1.223145	12.231445	14.672108
6.931152	15.900879	14.368719
11.416016	24.870605	14.070942
3.669434	13.454590	13.780655
1.630859	6.523437	13.494397
5.708008	14.270020	13.210251
6.931152	15.493164	12.930349
5.708008	19.162598	12.656183
7.746582	26.501465	12.387997
7.746582	28.132324	12.126551
5.708008	18.754883	11.871815
2.854004	20.385742	11.621930
-3.261719	18.347168	11.373299
4.484863	21.608887	11.124199
11.008301	23.647461	10.879088
3.669434	21.201172	10.641578
2.446289	17.531738	10.409112
16.308594	9.377441	10.182775
22.424316	19.162598	9.971096
13.046875	25.686035	9.778025
6.931152	22.424316	9.597994
5.708008	18.347168	9.424604
8.562012	14.270020	9.256236
3.669434	15.085449	9.092734
3.669434	13.046875	8.932227
-3.261719	11.008301	8.771643
-5.708008	17.124023	8.606869
-4.077148	13.454590	8.435592
-1.223145	14.677734	8.259249
0.000000	14.677734	8.080505
2.854004	18.347168	7.901798
5.300293	19.978027	7.725779
12.639160	21.201172	7.556471
11.823730	19.162598	7.398035
13.454590	19.978027	7.252071
17.124023	20.793457	7.119774
11.823730	29.763184	7.001627
7.746582	34.655762	6.894222
1.630859	38.732910	6.792044
0.000000	40.363770	6.690252
-2.446289	37.102051	6.585828
5.708008	42.810059	6.479430
3.669434	36.286621	6.374365
3.261719	33.432617	6.271647
4.484863	24.462891	6.170849
2.854004	21.608887	6.072098
7.746582	18.347168	5.976154
8.969727	14.677734	5.885453
8.562012	8.969727	5.801675
13.454590	6.931152	5.725986
12.231445	16.308594	5.660242
11.823730	26.501465	5.604595
6.931152	45.664062	5.556826
-4.077148	47.294922	5.511060
-6.523437	32.617187	5.459542
-7.338867	19.162598	5.398195
-1.223145	19.978027	5.328066
2.854004	22.832031	5.253695
3.669434	19.570313	5.179316
0.407715	20.385742	5.105649
-0.815430	19.162598	5.030920
-2.446289	14.677734	4.953328
0.000000	19.978027	4.872546
5.708008	27.316895	4.791163
-0.815430	19.570313	4.711217
3.669434	11.416016	4.631979
2.446289	23.647461	4.553821
1.630859	11.416016	4.477097
-6.523437	3.669434	4.398930
-3.261719	11.823730	4.315829
10.600586	19.570313	4.231315
14.270020	28.132324	4.154646
0.407715	36.694336	4.087474
0.815430	40.771484	4.023228
4.892578	38.732910	3.959487
7.746582	37.102051	3.899293
0.000000	35.063477	3.843085
-4.077148	29.763184	3.786350
-6.523437	25.686035	3.724351
-8.562012	25.278320	3.654501
-9.785156	24.055176	3.575194
-13.046875	30.578613	3.484906
-14.677734	27.724609	3.381768
-14.270020	12.639160	3.264862
-13.046875	19.978027	3.135043
-8.154297	28.132324	2.995068
-4.077148	26.909180	2.849506
-7.338867	31.394043	2.701334
-8.969727	45.256348	2.549754
-9.785156	51.372070	2.393154
-12.231445	39.956055	2.230424
-15.900879	33.432617	2.059552
-16.716309	35.878906	1.878300
-21.201172	28.132324	1.684759
-19.978027	19.162598	1.477440
-24.462891	11.008301	1.255472
-21.608887	5.300293	1.018466
-19.978027	2.446289	0.768102
-19.162598	12.231445	0.507071
-22.424316	14.270020	0.236128
-16.716309	21.201172	-0.043991
-17.531738	26.909180	-0.330649
-16.716309	30.986328	-0.621963
-20.385742	30.986328	-0.918166
-22.832031	35.063477	-1.221082
-23.239746	39.140625	-1.532443
-23.647461	34.248047	-1.852504
-19.978027	33.432617	-2.179893
-11.823730	37.102051	-2.509969
0.000000	35.063477	-2.833911
1.223145	36.694336	-3.142981
-11.823730	22.424316	-3.437206
-21.608887	4.077148	-3.726054
-22.424316	-7.338867	-4.018248
-13.046875	12.231445	-4.313864
-13.046875	23.647461	-4.607724
-14.270020	23.239746	-4.897457
-18.754883	24.055176	-5.184766
-13.046875	33.432617	-5.470638
-9.785156	39.548340	-5.752158
-7.746582	46.479492	-6.025481
-8.154297	44.440918	-6.288870
-7.338867	29.763184	-6.541963
-11.823730	23.239746	-6.785816
-5.708008	27.724609	-7.021129
-4.077148	28.947754	-7.245577
4.484863	19.570313	-7.454704
4.077148	19.570313	-7.644166
7.338867	16.308594	-7.811762
7.746582	12.639160	-7.956594
4.077148	20.793457	-8.079435
9.377441	20.793457	-8.181578
14.270020	16.308594	-8.260751
26.501465	19.978027	-8.310733
24.462891	23.239746	-8.325620
28.132324	24.462891	-8.303881
18.754883	34.655762	-8.248268
13.454590	39.956055	-8.165731
15.493164	34.248047	-8.062288
21.201172	37.102051	-7.937818
20.385742	39.140625	-7.790084
24.462891	27.724609	-7.618153
26.909180	15.085449	-7.420732
26.501465	12.231445	-7.196935
31.801758	18.347168	-6.946370
32.209473	17.124023	-6.667730
38.732910	25.686035	-6.359259
46.479492	23.239746	-6.017065
44.848633	28.947754	-5.637678
46.479492	36.694336	-5.221578
47.702637	36.694336	-4.770115
47.294922	30.578613	-4.284402
52.595215	32.617187	-3.765002
52.595215	33.024902	-3.211309
48.925781	27.724609	-2.625031
54.633789	31.801758	-2.008689
61.157227	33.024902	-1.360545
61.564941	29.355469	-0.677686
63.195801	18.347168	0.039953
64.826660	5.300293	0.791434
71.757812	-2.446289	1.577540
71.757812	0.815430	2.399946
69.311523	12.639160	3.257321
72.165527	23.647461	4.146645
70.942383	37.102051	5.066069
66.865234	42.810059	6.012301
72.980957	32.209473	6.982275
80.319824	30.578613	7.977965
80.727539	34.248047	9.002730
88.066406	43.625488	10.058244
85.212402	37.509766	11.145219
88.881836	30.578613	12.262478
91.328125	26.501465	13.409298
91.735840	24.055176	14.585488
91.328125	20.385742	15.789232
90.920410	10.600586	17.017804
91.735840	-6.931152	18.268678
91.328125	-17.124023	19.539745
92.958984	-11.823730	20.829183
84.804687	-18.347168	22.133412
80.319824	-2.446289	23.445357
74.611816	12.231445	24.757292
68.903809	14.677734	26.062164
62.788086	13.046875	27.352815
56.672363	17.124023	28.622216
56.672363	14.270020	29.865177
63.195801	13.046875	31.081695
59.118652	22.424316	32.274047
55.449219	14.677734	33.440684
52.187500	0.000000	34.577688
47.702637	-6.931152	35.681353
50.964355	-11.416016	36.749673
51.372070	-13.454590	37.783769
41.179199	-23.647461	38.782500
28.132324	-25.686035	39.737744
22.424316	-33.024902	40.639435
16.308594	-24.462891	41.481020
12.639160	-11.416016	42.258663
5.708008	-13.454590	42.969088
2.854004	-22.424316	43.609239
-4.484863	-19.570313	44.176381
-12.639160	-8.154297	44.666479
-15.900879	-14.270020	45.075439
-22.424316	-20.793457	45.400940
-28.947754	-28.947754	45.640424
-32.617187	-35.471191	45.791432
-37.509766	-29.763184	45.852887
-43.625488	-27.724609	45.823643
-55.449219	-26.501465	45.700236
-59.934082	-27.316895	45.478065
-62.380371	-20.385742	45.155735
-64.011230	-11.416016	44.735232
-70.942383	-18.754883	44.218125
-75.834961	-29.763184	43.603980
-83.989258	-38.325195	42.891306
-91.328125	-33.432617	42.077821
-99.890137	-23.239746	41.160700
-109.675293	-19.570313	40.136606
-117.829590	-34.655762	39.001930
-127.614746	-38.325195	37.753452
-124.760742	-36.286621	36.391106
-127.207031	-39.548340	34.919769
-129.653320	-39.548340	33.344749
-136.584473	-42.810059	31.668651
-141.884766	-59.526367	29.892138
-148.815918	-66.865234	28.015203
-154.931641	-53.410645	26.037727
-154.931641	-44.033203	23.961310
-164.309082	-36.694336	21.788548
-173.278809	-41.179199	19.518806
-181.025391	-44.440918	17.149654
-178.986816	-30.986328	14.682194
-183.063965	-14.677734	12.121439
-183.063965	-13.454590	9.472701
-201.003418	-30.986328	6.736967
-205.488281	-34.655762	3.910449
-207.119141	-26.909180	0.992735
-211.604004	-35.063477	-2.012190
-216.904297	-39.140625	-5.101395
-225.874023	-51.372070	-8.274132
-228.728027	-49.741211	-11.530138
-227.912598	-47.702637	-14.865859
-232.397461	-29.355469	-18.275678
-234.028320	-33.840332	-21.755224
-241.774902	-36.694336	-25.301753
-246.667480	-42.810059	-28.914284
-253.190918	-40.363770	-32.592352
-260.937500	-23.647461	-36.335868
-258.898926	-21.201172	-40.143182
-261.752930	-22.424316	-44.009116
-265.422363	-30.986328	-47.928878
-270.722656	-41.586914	-51.899982
-273.576660	-39.140625	-55.920426
-274.799805	-33.432617	-59.986963
-278.876953	-33.432617	-64.095695
-280.507812	-35.878906	-68.243284
-285.400391	-55.041504	-72.426824
-288.254395	-60.749512	-76.644040
-291.108398	-56.672363	-80.892507
-295.593262	-51.779785	-85.169774
-290.700684	-43.625488	-89.471862
-293.146973	-30.986328	-93.792375
-296.408691	-35.063477	-98.126797
-300.485840	-41.179199	-102.473368
-305.786133	-37.102051	-106.831364
-311.494141	-20.793457	-111.201042
-311.494141	-29.355469	-115.581672
-313.125000	-38.732910	-119.970083
-313.940430	-44.440918	-124.362383
-313.940430	-50.964355	-128.754636
-316.386719	-42.810059	-133.143087
-317.202148	-39.956055	-137.524796
-320.463867	-43.625488	-141.897392
-322.910156	-51.779785	-146.259265
-320.056152	-48.110352	-150.607708
-323.317871	-47.294922	-154.938762
-323.317871	-43.625488	-159.249628
-329.025879	-31.394043	-163.539047
-324.541016	-33.024902	-167.805304
-322.910156	-35.878906	-172.043681
-324.133301	-28.947754	-176.249274
-325.764160	-24.055176	-180.419793
-328.618164	-27.724609	-184.554372
-328.618164	-35.471191	-188.652223
-327.395020	-33.024902	-192.711133
-331.064453	-39.548340	-196.728923
-324.133301	-32.209473	-200.703021
-326.987305	-33.840332	-204.629303
-328.618164	-38.732910	-208.505917
-331.064453	-45.256348	-212.333289
-327.395020	-39.140625	-216.110379
-330.656738	-40.771484	-219.835068
-331.879883	-36.286621	-223.506888
-330.656738	-28.132324	-227.125554
-330.656738	-24.870605	-230.689352
-332.695312	-24.462891	-234.197238
-326.987305	-21.608887	-237.647629
-324.133301	-9.785156	-241.036295
-326.987305	-13.454590	-244.360221
-325.356445	-6.931152	-247.619169
-325.764160	-12.639160	-250.812661
-324.948730	-24.870605	-253.939877
-316.386719	-25.278320	-256.997965
-319.240723	-31.394043	-259.982882
-326.987305	-33.024902	-262.896091
-329.025879	-37.509766	-265.743136
-325.764160	-28.540039	-268.526273
-318.833008	-29.355469	-271.242474
-315.979004	-23.239746	-273.886671
-311.901855	-11.416016	-276.454957
-313.532715	-0.815430	-278.945609
-313.532715	-2.446289	-281.359314
-311.494141	-3.261719	-283.696916
-313.125000	-0.815430	-285.958764
-316.386719	1.630859	-288.147093
-315.979004	-1.223145	-290.264969
-317.609863	-8.969727	-292.314431
-320.871582	-16.716309	-294.298032
-315.979004	-23.239746	-296.217528
-311.086426	-28.947754	-298.070809
-313.940430	-37.102051	-299.855822
-315.979004	-31.394043	-301.574534
-311.494141	-22.424316	-303.228787
-313.125000	-24.870605	-304.818371
-305.786133	-19.570313	-306.342297
-300.078125	-16.716309	-307.797011
-298.039551	-12.639160	-309.178661
-301.301270	-6.931152	-310.487390
-298.039551	5.300293	-311.725450
-297.631836	7.338867	-312.893778
-293.962402	-6.931152	-313.992272
-297.224121	-19.570313	-315.021762
-295.593262	-21.201172	-315.984616
-292.331543	-19.570313	-316.881985
-300.078125	-17.531738	-317.715787
-299.262695	-23.239746	-318.491023
-298.854980	-26.501465	-319.211033
-296.408691	-30.578613	-319.876493
-291.516113	-18.754883	-320.486496
-293.962402	-22.832031	-321.040345
-295.185547	-19.978027	-321.540323
-292.739258	-19.978027	-321.988989
-289.069824	-17.531738	-322.386269
-284.584961	-15.085449	-322.730324
-283.769531	-8.969727	-323.019672
-277.653809	-2.854004	-323.253274
-289.477539	-17.124023	-323.433089
-289.477539	-19.162598	-323.565972
-288.254395	-12.231445	-323.656693
-287.846680	-13.454590	-323.706318
-287.846680	-14.270020	-323.716122
-284.584961	-9.785156	-323.686935
-279.284668	-15.493164	-323.617448
-280.507812	-18.347168	-323.506241
-277.653809	-18.754883	-323.353822
-274.799805	-22.832031	-323.160289
-273.984375	-23.239746	-322.925247
-277.653809	-16.716309	-322.650609
-276.430664	-11.823730	-322.339850
-277.653809	-24.462891	-321.995576
-269.499512	-21.201172	-321.617847
-272.353516	-18.347168	-321.205362
-273.576660	-24.462891	-320.759809
-276.430664	-17.124023	-320.285297
-269.499512	-9.785156	-319.783635
-268.276367	-17.531738	-319.253369
-267.053223	-20.385742	-318.693567
-264.606934	-28.540039	-318.104549
-257.268066	-28.947754	-317.484723
-256.452637	-31.801758	-316.831426
-263.383789	-32.209473	-316.146323
-262.976074	-34.655762	-315.434896
-257.675781	-27.724609	-314.699301
-254.006348	-13.454590	-313.937549
-254.006348	-8.969727	-313.148306
-257.675781	-11.008301	-312.333646
-256.860352	-8.154297	-311.497292
-255.637207	-1.223145	-310.641319
-251.967773	-6.523437	-309.765696
-258.083496	-2.854004	-308.871589
-257.675781	0.407715	-307.962918
-251.560059	-6.523437	-307.041084
-245.036621	-15.085449	-306.102617
-236.066895	-17.531738	-305.141869
-232.805176	-22.424316	-304.153574
-241.367188	-29.355469	-303.138198
-240.144043	-10.600586	-302.101357
-239.328613	-7.746582	-301.046504
-241.367188	-13.046875	-299.975350
-236.066895	-11.823730	-298.889224
-233.212891	-8.969727	-297.786946
-236.474609	-4.077148	-296.668371
-234.028320	8.969727	-295.535735
-233.212891	1.630859	-294.390222
-231.582031	-9.785156	-293.232121
-229.543457	-13.454590	-292.061611
-231.174316	-12.639160	-290.879414
-231.174316	-13.046875	-289.687624
-227.912598	-4.892578	-288.487498
-226.689453	-7.746582	-287.278640
-220.981445	-12.639160	-286.059718
-219.758301	-17.531738	-284.828827
-225.466309	-17.531738	-283.587160
-220.573730	-19.570313	-282.337902
-214.865723	-3.669434	-281.080140
-211.196289	5.708008	-279.810332
-209.973145	1.223145	-278.526611
-205.488281	-6.931152	-277.228170
-210.788574	-7.746582	-275.915755
-209.157715	-1.630859	-274.592558
-209.973145	-3.669434	-273.261207
-214.865723	-6.523437	-271.924755
-215.681152	-5.708008	-270.587837
-211.604004	-11.008301	-269.252521
-212.827148	-17.531738	-267.918532
-215.681152	-22.424316	-266.587531
-210.788574	-20.385742	-265.261318
-212.827148	-28.947754	-263.939785
-205.895996	-15.900879	-262.622071
-196.926270	-8.969727	-261.303928
-199.780273	-6.523437	-259.980976
-205.488281	-2.446289	-258.655466
-212.827148	-5.300293	-257.334582
-207.119141	0.000000	-256.023359
-203.857422	3.669434	-254.720809
-201.818848	6.523437	-253.424158
-205.488281	4.892578	-252.133539
-204.672852	3.261719	-250.851212
-199.780273	2.854004	-249.577399
-198.557129	0.000000	-248.309947
-199.372559	-1.223145	-247.048185
-199.780273	-11.008301	-245.793396
-194.479980	-18.754883	-244.545618
-198.557129	-25.278320	-243.304239
-194.887695	-8.969727	-242.070058
-192.441406	-9.785156	-240.842547
-195.703125	-3.261719	-239.621301
-189.587402	-1.223145	-238.406784
-190.810547	-4.484863	-237.197932
-192.849121	-4.484863	-235.995330
-191.218262	-2.854004	-234.800922
-191.625977	4.077148	-233.615379
-193.664551	-1.223145	-232.439865
-195.295410	2.446289	-231.276767
-193.664551	0.407715	-230.127710
-188.364258	-4.892578	-228.991443
-186.733398	1.630859	-227.864939
-185.102539	5.300293	-226.746263
-187.956543	0.815430	-225.635699
-179.394531	-6.931152	-224.532868
-182.656250	-6.523437	-223.435687
-182.656250	-16.308594	-222.344518
-177.763672	-15.493164	-221.259807
-178.579102	-6.931152	-220.180043
-175.317383	4.077148	-219.104424
-174.501953	9.377441	-218.032179
-183.471680	11.823730	-216.965352
-181.025391	10.600586	-215.908675
-174.909668	8.969727	-214.862262
-170.832520	15.493164	-213.821821
-175.725098	8.562012	-212.785712
-175.317383	4.892578	-211.756219
-175.725098	-4.484863	-210.735302
-167.978516	-3.669434	-209.721717
-165.532227	-7.746582	-208.711593
-160.231934	-18.754883	-207.701120
-165.124512	-18.347168	-206.689235
-168.793945	-4.077148	-205.679207
-165.124512	5.708008	-204.674262
-163.901367	16.716309	-203.673940
-162.678223	8.562012	-202.677156
-161.862793	4.077148	-201.683617
-162.678223	0.000000	-200.693686
-158.601074	15.493164	-199.707383
-160.231934	15.900879	-198.724080
-161.862793	13.046875	-197.744888
-159.416504	6.931152	-196.771293
-160.639648	4.077148	-195.803528
-156.154785	-0.407715	-194.841168
-153.300781	2.854004	-193.882196
-154.523926	-1.223145	-192.925107
-153.708496	-8.154297	-191.970503
-144.738770	0.815430	-191.016809
-146.777344	6.931152	-190.060596
-145.554199	-2.446289	-189.101375
-143.923340	-2.854004	-188.139756
-143.923340	-4.484863	-187.175680
-144.331055	5.708008	-186.209949
-145.554199	17.124023	-185.244188
-145.146484	19.978027	-184.280058
-143.923340	15.085449	-183.318281
-139.030762	19.162598	-182.357729
-136.584473	18.347168	-181.395819
-139.030762	-0.815430	-180.431696
-139.438477	-9.377441	-179.467224
-138.623047	-8.154297	-178.504074
-137.807617	-2.854004	-177.542663
-141.477051	-4.077148	-176.584244
-137.399902	-1.223145	-175.630330
-140.661621	-3.261719	-174.681399
-140.661621	-3.261719	-173.738864
-134.953613	7.746582	-172.802784
-132.099609	4.077148	-171.870100
-133.322754	-1.223145	-170.938962
-134.953613	16.716309	-170.010599
-135.769043	25.686035	-169.087254
-137.807617	21.201172	-168.171061
-134.545898	22.424316	-167.263087
-132.507324	19.978027	-166.362200
-132.507324	11.823730	-165.467099
-127.207031	12.231445	-164.576533
-135.769043	3.669434	-163.690697
-136.992188	-8.969727	-162.813735
-132.099609	-9.785156	-161.947774
-130.876465	-1.223145	-161.090653
-126.799316	-4.484863	-160.239874
-123.129883	0.000000	-159.392616
-114.975586	5.708008	-158.544470
-115.383301	7.338867	-157.691225
-123.537598	10.600586	-156.834224
-123.129883	19.162598	-155.978821
-125.168457	28.947754	-155.128306
-124.353027	25.686035	-154.284101
-125.168457	18.347168	-153.447129
-130.468750	6.931152	-152.619547
-131.691895	-4.077148	-151.805120
-125.576172	-2.854004	-151.004535
-119.868164	3.669434	-150.213617
-121.499023	-2.446289	-149.428580
-120.275879	-9.377441	-148.649020
-117.829590	0.815430	-147.874650
-119.460449	4.077148	-147.104870
-116.198730	10.600586	-146.339640
-121.091309	7.746582	-145.579556
-121.091309	17.124023	-144.826898
-121.499023	14.270020	-144.083513
-110.898438	19.978027	-143.347192
-111.306152	26.501465	-142.613031
-104.782715	16.308594	-141.877422
-111.306152	19.162598	-141.139596
-117.829590	16.308594	-140.403856
-111.713867	19.978027	-139.674415
-116.606445	16.716309	-138.951540
-116.606445	5.708008	-138.236657
-109.267578	-3.261719	-137.529512
-107.229004	-1.223145	-136.826106
-103.559570	4.484863	-136.123047
-102.744141	3.261719	-135.418380
-105.598145	7.746582	-134.712275
-104.782715	15.085449	-134.006610
-103.559570	17.124023	-133.302108
-99.482422	25.686035	-132.597528
-99.482422	37.102051	-131.891150
-99.482422	43.625488	-131.182727
-98.666992	38.325195	-130.472882
-101.113281	35.063477	-129.762640
-100.297852	20.793457	-129.053621
-98.666992	12.639160	-128.346301
-99.482422	8.562012	-127.640490
-92.958984	8.562012	-126.935146
-92.143555	3.669434	-126.227563
-90.920410	5.708008	-125.516122
-89.697266	17.531738	-124.800568
-84.396973	22.832031	-124.079482
-87.658691	16.716309	-123.351625
-84.396973	15.493164	-122.617531
-84.396973	12.231445	-121.877398
-83.581543	22.424316	-121.131206
-79.912109	37.509766	-120.378622
-80.727539	41.179199	-119.618798
-79.504395	29.355469	-118.852005
-82.358398	32.617187	-118.079683
-78.688965	33.432617	-117.303111
-79.096680	35.878906	-116.522226
-75.834961	25.686035	-115.736436
-77.058105	9.785156	-114.945505
-74.611816	7.746582	-114.149639
-79.504395	10.600586	-113.350221
-79.096680	15.900879	-112.550072
-80.319824	15.900879	-111.751457
-83.173828	19.570313	-110.956432
-84.804687	33.432617	-110.167919
-80.727539	27.724609	-109.386987
-78.688965	26.909180	-108.611863
-71.757812	30.986328	-107.839136
-66.457520	41.586914	-107.063940
-63.603516	40.363770	-106.281846
-70.942383	44.440918	-105.493025
-79.096680	42.402344	-104.703859
-81.542969	37.509766	-103.922047
-77.873535	25.278320	-103.150540
-73.388672	17.124023	-102.387218
-72.165527	4.484863	-101.628873
-67.272949	7.746582	-100.872968
-64.826660	17.531738	-100.116653
-64.826660	22.424316	-99.358172
-61.564941	29.355469	-98.596919
-64.011230	42.810059	-97.832749
-59.526367	45.256348	-97.065848
-60.341797	42.810059	-96.295646
-64.418945	33.024902	-95.523423
-64.011230	28.132324	-94.752331
-65.642090	21.201172	-93.984414
-60.341797	22.832031	-93.219693
-59.526367	31.801758	-92.456256
-64.011230	32.617187	-91.694204
-57.080078	23.647461	-90.934597
-52.187500	22.424316	-90.174373
-55.856934	4.892578	-89.410933
-54.633789	4.484863	-88.645544
-55.856934	9.785156	-87.879743
-55.449219	19.162598	-87.114567
-55.041504	15.085449	-86.350791
-53.818359	22.424316	-85.588512
-51.779785	17.531738	-84.827178
-48.925781	30.578613	-84.065405
-43.625488	33.024902	-83.300584
-46.887207	42.810059	-82.530981
-44.848633	33.024902	-81.757406
-47.294922	30.986328	-80.981281
-45.256348	30.986328	-80.203751
-45.256348	25.278320	-79.425269
-44.440918	20.385742	-78.645945
-49.333496	26.909180	-77.867493
-53.002930	24.870605	-77.094013
-49.333496	21.201172	-76.328340
-47.294922	25.278320	-75.569426
-40.363770	22.424316	-74.813907
-35.878906	27.724609	-74.057067
-35.471191	28.132324	-73.295478
-32.209473	21.201172	-72.527906
-35.471191	20.793457	-71.754464
-44.033203	32.209473	-70.979337
-46.887207	48.110352	-70.209521
-52.187500	38.732910	-69.450725
-48.518066	25.686035	-68.705817
-44.848633	15.085449	-67.973452
-42.402344	9.377441	-67.250295
-37.509766	18.347168	-66.533156
-35.471191	21.608887	-65.818767
-37.509766	24.055176	-65.105932
-38.732910	24.870605	-64.396188
-33.432617	28.947754	-63.689925
-29.355469	31.801758	-62.984194
-29.355469	32.617187	-62.276178
-30.578613	30.986328	-61.565975
-27.316895	25.686035	-60.854216
-30.578613	23.239746	-60.141183
-27.724609	36.694336	-59.427791
-28.540039	37.509766	-58.714377
-35.471191	30.578613	-58.003192
-28.540039	40.771484	-57.296916
-32.617187	39.956055	-56.595319
-32.617187	36.694336	-55.899248
-29.355469	31.801758	-55.209398
-23.647461	31.801758	-54.523000
-27.724609	26.909180	-53.837832
-22.832031	24.870605	-53.153918
-29.355469	30.986328	-52.472132
-30.986328	18.347168	-51.795665
-31.801758	15.493164	-51.127772
-24.870605	22.424316	-50.467802
-16.716309	29.355469	-49.810519
-17.531738	41.179199	-49.150604
-16.716309	44.033203	-48.486939
-15.085449	43.625488	-47.819751
-18.754883	33.432617	-47.149792
-25.278320	34.248047	-46.481105
-29.763184	29.763184	-45.819904
-28.540039	24.870605	-45.170294
-24.870605	21.201172	-44.532003
-20.385742	18.347168	-43.901762
-24.055176	9.377441	-43.277512
-22.832031	0.000000	-42.660066
-23.239746	2.854004	-42.050193
-18.754883	5.708008	-41.446905
-14.270020	8.969727	-40.847111
-15.900879	16.308594	-40.248177
-15.085449	20.793457	-39.650156
-11.823730	22.832031	-39.052781
-11.008301	31.801758	-38.454506
-9.785156	32.617187	-37.854395
-9.785156	23.647461	-37.252305
-8.154297	25.278320	-36.648208
-9.785156	23.647461	-36.042402
-13.046875	18.347168	-35.436885
-15.900879	25.278320	-34.835174
-15.900879	19.978027	-34.240083
-13.046875	11.008301	-33.651939
-14.270020	3.261719	-33.069866
-11.823730	10.600586	-32.493450
-8.154297	14.677734	-31.921115
-8.969727	15.493164	-31.350919
-9.785156	24.055176	-30.783043
-9.785156	25.686035	-30.218623
-13.046875	28.947754	-29.659164
-18.347168	35.878906	-29.108137
-14.677734	41.179199	-28.568416
-10.600586	39.956055	-28.038449
-7.338867	35.878906	-27.514388
-13.046875	37.102051	-26.995231
-15.085449	30.986328	-26.483979
-14.677734	26.909180	-25.983274
-14.270020	30.578613	-25.493378
-8.969727	29.355469	-25.012603
-6.931152	19.162598	-24.537614
-4.484863	24.870605	-24.065541
-4.077148	24.462891	-23.594820
-3.261719	22.424316	-23.124815
-0.815430	22.424316	-22.654807
-4.892578	24.055176	-22.184863
-8.154297	28.947754	-21.717830
-9.785156	29.355469	-21.257280
-7.338867	33.024902	-20.804473
-1.630859	31.801758	-20.357179
0.407715	37.102051	-19.911441
0.000000	37.102051	-19.465193
0.815430	33.432617	-19.018392
-1.630859	23.647461	-18.571854
-4.892578	16.716309	-18.127963
-4.077148	24.870605	-17.689208
-0.815430	19.162598	-17.255390
6.931152	15.493164	-16.822777
4.484863	17.124023	-16.387485
3.669434	20.385742	-15.949558
4.892578	35.471191	-15.510325
4.484863	35.471191	-15.069986
4.077148	39.140625	-14.629052
6.931152	32.617187	-14.187586
6.931152	39.140625	-13.744684
6.523437	37.509766	-13.300234
10.600586	37.509766	-12.853915
12.639160	37.509766	-12.403711
11.008301	31.801758	-11.948558
8.154297	25.686035	-11.490229
7.338867	15.900879	-11.031491
6.523437	13.046875	-10.574238
8.969727	17.531738	-10.118883
6.523437	27.724609	-9.665389
4.077148	23.647461	-9.215434
7.746582	24.870605	-8.770295
11.008301	24.870605	-8.328078
10.600586	31.801758	-7.886546
6.931152	36.694336	-7.446453
8.562012	38.732910	-7.009803
6.523437	43.217773	-6.577541
13.454590	35.471191	-6.148744
15.900879	39.548340	-5.719957
14.270020	35.063477	-5.288953
6.931152	27.724609	-4.858428
9.377441	26.909180	-4.432453
8.154297	27.316895	-4.012233
5.708008	23.239746	-3.598592
7.338867	23.239746	-3.192845
12.231445	25.686035	-2.793561
11.008301	21.608887	-2.398189
17.124023	21.201172	-2.004719
14.270020	19.162598	-1.611334
6.931152	17.124023	-1.220266
6.931152	26.909180	-0.836426
16.308594	37.509766	-0.459353
13.454590	44.440918	-0.084962
9.377441	30.986328	0.286370
5.300293	26.501465	0.650428
4.892578	37.509766	1.003839
5.708008	26.909180	1.345642
13.454590	21.608887	1.678362
21.201172	24.055176	2.008379
25.686035	27.724609	2.342752
23.647461	19.570313	2.684788
17.531738	23.647461	3.032280
17.531738	26.501465	3.380867
17.531738	23.239746	3.728529
18.347168	19.978027	4.075154
25.278320	21.608887	4.422675
29.763184	31.394043	4.775720
28.132324	34.655762	5.137416
28.132324	47.294922	5.507314
27.316895	43.625488	5.884008
23.647461	44.440918	6.265404
19.162598	39.956055	6.647568
19.978027	39.956055	7.026957
28.132324	39.548340	7.404691
26.501465	34.655762	7.784517
19.162598	25.686035	8.165299
24.055176	8.562012	8.543596
28.132324	6.931152	8.920834
27.316895	9.785156	9.299880
29.355469	22.424316	9.681431
29.355469	33.024902	10.065830
28.132324	29.355469	10.452757
23.647461	24.462891	10.839872
24.462891	21.201172	11.224294
26.501465	27.724609	11.605529
21.201172	25.686035	11.983213
16.308594	29.763184	12.353575
17.531738	33.432617	12.712917
23.647461	32.617187	13.062325
24.462891	24.870605	13.405629
24.055176	19.570313	13.744675
27.316895	25.278320	14.080154
34.655762	23.647461	14.415412
33.432617	28.947754	14.754496
24.055176	23.239746	15.095698
27.316895	18.347168	15.434174
26.501465	22.832031	15.768728
28.540039	26.909180	16.100148
35.878906	29.355469	16.431014
39.140625	41.179199	16.766251
26.501465	46.479492	17.105631
22.832031	37.509766	17.441861
20.793457	32.617187	17.768947
21.608887	37.102051	18.085139
21.201172	27.724609	18.390384
23.647461	24.055176	18.685501
28.947754	17.531738	18.973209
35.063477	6.931152	19.258574
35.878906	-3.261719	19.546224
35.471191	19.978027	19.837679
35.063477	34.655762	20.132354
35.878906	41.179199	20.429686
39.140625	39.548340	20.730421
34.248047	32.617187	21.034732
31.394043	19.978027	21.339672
33.024902	31.394043	21.642537
36.286621	49.741211	21.944066
36.286621	48.925781	22.246146
35.063477	33.432617	22.548969
40.363770	24.870605	22.852933
39.956055	30.986328	23.160024
37.102051	34.655762	23.470205
35.878906	29.763184	23.781083
31.801758	19.162598	24.089836
30.578613	8.154297	24.393451
33.024902	15.085449	24.690771
39.956055	19.162598	24.984554
44.848633	23.647461	25.280220
44.033203	30.578613	25.581550
43.217773	30.986328	25.888614
43.217773	31.801758	26.200187
37.102051	31.801758	26.513916
39.956055	42.402344	26.826911
40.363770	41.179199	27.138875
44.848633	35.878906	27.451671
47.294922	35.063477	27.768036
49.741211	36.286621	28.090584
50.556641	36.694336	28.420837
42.810059	33.432617	28.757136
38.325195	30.986328	29.093818
40.771484	26.909180	29.426764
43.217773	31.801758	29.756544
48.925781	38.732910	30.086382
45.664062	33.432617	30.418713
44.033203	35.471191	30.752432
39.140625	30.578613	31.084127
37.509766	33.432617	31.410114
36.286621	36.286621	31.727845
39.548340	43.217773	32.037147
44.033203	35.878906	32.340648
50.964355	36.694336	32.643324
49.741211	39.548340	32.949393
48.110352	38.325195	33.259130
48.110352	31.394043	33.570866
45.664062	22.424316	33.883110
39.140625	19.978027	34.192513
41.179199	16.308594	34.495344
41.586914	22.424316	34.791048
39.140625	16.308594	35.079743
38.325195	13.454590	35.360051
40.363770	23.647461	35.631523
37.509766	28.947754	35.894381
38.325195	38.325195	36.147989
40.363770	44.033203	36.392714
38.325195	42.402344	36.629452
41.179199	29.763184	36.858528
39.956055	26.909180	37.080694
46.479492	29.355469	37.297848
42.402344	23.239746	37.512026
44.848633	19.978027	37.723350
45.664062	13.454590	37.932157
53.818359	15.900879	38.141554
50.964355	18.347168	38.355044
50.556641	25.686035	38.572751
47.294922	25.686035	38.792436
47.294922	26.909180	39.011956
51.372070	19.978027	39.231304
52.595215	28.132324	39.452719
53.818359	38.732910	39.677911
48.110352	48.110352	39.905936
48.110352	51.372070	40.133748
48.110352	45.256348	40.359619
44.848633	34.655762	40.582542
43.625488	24.870605	40.800382
43.217773	19.162598	41.011533
46.887207	22.424316	41.216506
43.217773	20.385742	41.416221
49.333496	11.416016	41.611349
53.818359	6.931152	41.805321
55.449219	16.308594	42.002377
53.818359	19.978027	42.203776
53.002930	23.647461	42.408467
52.595215	29.763184	42.615122
46.887207	32.209473	42.821506
44.033203	24.055176	43.023561
48.110352	29.763184	43.219341
56.672363	46.479492	43.412567
59.934082	48.110352	43.609578
59.526367	39.956055	43.813851
55.856934	39.548340	44.024520
54.633789	34.248047	44.238719
50.964355	37.509766	44.453491
51.779785	27.724609	44.666551
53.002930	23.239746	44.877538
50.556641	17.531738	45.086538
55.041504	22.424316	45.293635
56.672363	31.801758	45.500842
56.672363	26.909180	45.709969
55.041504	24.870605	45.920710
55.856934	28.947754	46.132128
58.710937	35.878906	46.344719
53.818359	47.702637	46.558637
55.856934	53.818359	46.772309
62.788086	46.479492	46.987131
58.710937	38.732910	47.205929
50.964355	37.509766	47.425937
49.741211	41.586914	47.641408
52.595215	39.140625	47.850393
49.333496	26.909180	48.053286
47.702637	19.570313	48.248760
48.110352	12.231445	48.435337
52.187500	30.986328	48.614082
58.710937	41.179199	48.789125
62.380371	42.402344	48.965912
62.788086	39.548340	49.147926
55.449219	31.394043	49.333991
55.041504	34.248047	49.519870
59.526367	38.732910	49.704413
56.672363	37.102051	49.888987
58.303223	32.209473	50.073502
59.934082	26.909180	50.258304
56.672363	24.055176	50.443614
48.110352	12.231445	50.625679
48.925781	15.493164	50.799314
51.779785	19.162598	50.963649
54.633789	19.978027	51.121394
53.818359	13.046875	51.274717
55.449219	18.347168	51.424409
53.002930	24.870605	51.570475
53.002930	28.540039	51.712071
51.372070	33.432617	51.848178
56.264648	27.724609	51.979331
57.487793	33.432617	52.108080
59.934082	37.102051	52.236968
68.496094	44.848633	52.369711
59.934082	42.810059	52.508885
51.779785	41.586914	52.649662
48.518066	43.217773	52.784431
50.964355	33.432617	52.910109
56.672363	29.355469	53.028905
59.118652	29.763184	53.145289
59.526367	29.355469	53.262141
63.603516	19.978027	53.381243
65.642090	19.570313	53.505154
65.234375	19.162598	53.635561
69.311523	26.909180	53.773424
67.680664	31.801758	53.919867
65.642090	32.617187	54.074027
66.865234	39.548340	54.234212
72.980957	56.672363	54.401697
66.865234	59.526367	54.577901
57.080078	46.887207	54.758068
52.595215	36.694336	54.933903
48.110352	34.248047	55.099313
51.779785	26.909180	55.252026
52.187500	30.578613	55.393313
59.934082	29.763184	55.526758
64.418945	31.801758	55.657930
67.272949	28.947754	55.791935
67.680664	37.102051	55.931289
64.418945	39.140625	56.075711
62.788086	35.878906	56.222783
51.779785	36.694336	56.367626
55.856934	24.055176	56.505047
58.710937	32.617187	56.635239
59.526367	32.209473	56.761177
59.526367	39.140625	56.884100
62.380371	33.432617	57.004979
57.080078	34.655762	57.123886
53.410645	31.394043	57.237788
49.741211	25.686035	57.342507
53.818359	24.870605	57.436528
56.672363	24.870605	57.522166
58.710937	20.793457	57.602817
56.672363	16.308594	57.679906
60.341797	18.347168	57.753942
59.934082	19.978027	57.826272
63.603516	24.870605	57.898610
62.788086	40.363770	57.972487
68.088379	44.033203	58.049682
68.088379	46.479492	58.132536
65.642090	45.664062	58.221453
59.526367	39.956055	58.313175
48.518066	29.763184	58.400730
55.856934	24.870605	58.478753
61.157227	27.316895	58.549949
66.865234	36.694336	58.620767
65.642090	41.179199	58.695217
69.311523	23.647461	58.774879
66.865234	15.493164	58.860396
65.642090	18.754883	58.950770
64.011230	24.055176	59.043972
63.195801	28.540039	59.138385
67.272949	25.278320	59.234069
61.564941	28.947754	59.331292
63.603516	34.248047	59.428493
59.526367	40.771484	59.524069
63.603516	42.402344	59.617459
65.642090	55.856934	59.710269
62.788086	43.625488	59.803822
63.603516	32.617187	59.897235
65.642090	27.724609	59.990631
69.719238	17.531738	60.086269
73.796387	27.724609	60.187694
66.865234	32.209473	60.295932
64.011230	24.055176	60.407238
63.195801	18.347168	60.517824
57.487793	27.724609	60.624926
63.603516	33.432617	60.726986
66.865234	29.763184	60.826693
69.719238	34.655762	60.928120
66.865234	29.763184	61.032689
68.496094	33.024902	61.139826
64.011230	38.732910	61.248232
65.234375	41.179199	61.356128
66.865234	40.363770	61.463317
63.195801	45.256348	61.569932
63.195801	43.625488	61.674389
60.749512	33.432617	61.775068
57.080078	24.870605	61.869786
57.487793	29.763184	61.956251
65.642090	26.909180	62.036137
72.573242	19.570313	62.115871
70.942383	26.501465	62.200731
67.680664	29.355469	62.290502
67.272949	33.432617	62.382619
65.642090	33.432617	62.475379
67.680664	33.432617	62.568227
75.427246	32.617187	62.663739
72.165527	37.102051	62.765443
71.350098	45.256348	62.873057
68.496094	46.887207	62.984168
59.118652	44.440918	63.094321
57.487793	45.256348	63.197340
68.903809	34.655762	63.293119
70.942383	31.801758	63.387991
71.757812	28.947754	63.486179
68.088379	23.647461	63.587432
62.380371	21.608887	63.688290
61.157227	24.055176	63.784382
62.788086	26.909180	63.874109
67.680664	40.771484	63.959486
68.496094	46.479492	64.043833
68.496094	42.402344	64.128822
65.234375	34.655762	64.213691
71.350098	39.140625	64.298251
72.980957	41.179199	64.385211
70.942383	39.140625	64.476298
71.757812	40.771484	64.570802
73.388672	51.372070	64.668790
83.581543	44.033203	64.773749
80.319824	36.286621	64.890180
69.719238	29.355469	65.015619
68.496094	30.986328	65.142781
69.311523	28.540039	65.268239
70.942383	34.248047	65.392475
75.427246	36.694336	65.517662
73.796387	33.432617	65.645983
75.427246	36.694336	65.777910
75.427246	36.694336	65.913570
73.796387	44.440918	66.052650
77.465820	43.625488	66.194958
72.573242	42.810059	66.340410
70.534668	36.694336	66.486571
67.272949	34.655762	66.630040
72.165527	45.664062	66.769826
72.573242	51.372070	66.907769
75.834961	37.102051	67.046165
77.465820	24.462891	67.187095
80.319824	16.308594	67.332761
77.058105	13.046875	67.483866
80.319824	19.162598	67.639898
75.427246	25.686035	67.800041
79.096680	23.647461	67.963190
73.388672	32.617187	68.128182
68.496094	32.617187	68.291439
78.688965	39.140625	68.451476
85.620117	45.664062	68.614162
84.396973	55.041504	68.785202
75.834961	40.363770	68.962969
72.980957	32.617187	69.141400
70.942383	27.724609	69.315994
72.573242	27.316895	69.485350
77.873535	34.655762	69.651241
75.427246	33.432617	69.816218
80.727539	26.909180	69.981651
80.319824	17.124023	70.149379
79.912109	19.162598	70.320194
77.465820	23.239746	70.492811
77.058105	28.947754	70.665469
73.388672	38.325195	70.836163
75.427246	37.509766	71.003304
77.465820	32.209473	71.167520
72.573242	32.617187	71.329092
70.942383	39.548340	71.485506
72.165527	35.878906	71.635012
69.311523	42.810059	71.777229
74.611816	55.041504	71.912553
79.912109	51.779785	72.044582
71.757812	38.732910	72.175360
75.427246	24.055176	72.302879
73.796387	15.900879	72.426511
72.573242	19.162598	72.546087
72.165527	29.355469	72.660487
72.165527	33.432617	72.769290
73.388672	35.878906	72.872850
79.096680	36.694336	72.973437
81.135254	42.402344	73.074937
80.319824	49.333496	73.179556
80.319824	53.002930	73.287152
75.019531	50.964355	73.395870
74.611816	44.033203	73.502652
69.311523	35.063477	73.604476
75.427246	41.179199	73.700174
79.504395	40.363770	73.792815
78.688965	35.063477	73.885974
79.504395	32.617187	73.980387
75.427246	36.694336	74.075041
77.465820	23.239746	74.168433
80.319824	29.763184	74.261272
77.465820	34.655762	74.354771
78.688965	32.209473	74.448373
76.650391	35.878906	74.541332
76.650391	44.033203	74.632831
76.650391	43.217773	74.722304
77.873535	39.140625	74.810069
79.096680	42.810059	74.897077
77.058105	41.179199	74.983697
70.534668	46.479492	75.067394
69.719238	45.664062	75.144036
69.719238	38.732910	75.211718
71.757812	37.509766	75.271098
77.058105	35.878906	75.324952
81.135254	42.402344	75.377866
80.727539	33.024902	75.433253
77.058105	24.870605	75.490837
80.319824	25.686035	75.549279
77.465820	27.316895	75.608479
77.465820	44.033203	75.667697
76.650391	53.002930	75.725908
71.757812	55.449219	75.781381
73.388672	51.779785	75.831826
69.719238	44.440918	75.876026
72.980957	37.509766	75.913574
73.388672	39.548340	75.945590
74.611816	40.363770	75.973683
77.465820	34.655762	75.999500
76.650391	29.763184	76.024724
79.096680	32.209473	76.050319
75.834961	27.724609	76.076456
72.573242	21.201172	76.101155
82.358398	29.763184	76.124455
85.212402	36.286621	76.151428
77.465820	32.209473	76.183916
74.611816	40.363770	76.217564
75.427246	39.548340	76.248963
74.611816	39.956055	76.277648
73.388672	39.140625	76.303176
72.980957	37.509766	76.324699
78.688965	32.617187	76.343339
82.766113	36.694336	76.363171
77.465820	36.694336	76.386369
77.873535	30.986328	76.411150
76.650391	30.986328	76.435916
76.650391	25.686035	76.460106
78.688965	20.793457	76.483935
78.688965	17.124023	76.508466
84.804687	26.909180	76.535784
80.319824	31.801758	76.567767
78.688965	19.978027	76.602993
72.980957	21.201172	76.637744
75.834961	23.239746	76.669327
77.465820	32.617187	76.698281
73.796387	42.402344	76.725337
75.427246	47.294922	76.749481
72.573242	36.694336	76.769964
72.573242	25.686035	76.785859
76.242676	20.385742	76.797571
71.757812	19.978027	76.806028
83.989258	36.286621	76.813187
80.319824	50.964355	76.823386
77.873535	40.363770	76.837118
74.611816	23.239746	76.851102
73.796387	11.416016	76.862743
78.688965	11.823730	76.872133
77.465820	15.493164	76.881400
82.766113	28.947754	76.892576
88.474121	39.548340	76.909523
83.989258	35.471191	76.935176
81.135254	35.063477	76.967508
79.096680	42.810059	77.002968
76.650391	39.956055	77.038914
77.465820	37.509766	77.073680
76.650391	36.694336	77.106854
76.650391	28.540039	77.138259
79.504395	25.278320	77.168478
84.396973	30.986328	77.200318
84.396973	23.239746	77.236992
77.873535	20.385742	77.277814
84.396973	33.432617	77.320839
85.620117	29.763184	77.367958
87.250977	24.870605	77.421719
83.173828	18.347168	77.481873
82.766113	24.055176	77.546246
81.135254	37.509766	77.612866
82.766113	48.110352	77.681024
79.912109	56.264648	77.750260
82.358398	37.102051	77.820021
75.019531	25.278320	77.888820
72.573242	24.870605	77.952772
70.942383	26.909180	78.008387
81.135254	27.724609	78.057164
84.396973	31.394043	78.105144
81.542969	24.870605	78.155954
77.058105	12.639160	78.207593
75.834961	22.424316	78.256540
72.980957	28.947754	78.300297
72.573242	28.132324	78.337124
78.688965	28.947754	78.367940
78.688965	24.462891	78.396090
84.396973	29.763184	78.424771
82.766113	29.355469	78.456501
79.096680	36.694336	78.490785
76.242676	39.140625	78.524367
80.319824	34.655762	78.555850
77.465820	35.471191	78.585940
77.465820	27.316895	78.614238
79.504395	32.617187	78.640583
77.873535	28.947754	78.665678
84.396973	16.308594	78.690946
87.250977	4.484863	78.720101
87.250977	19.978027	78.756148
80.727539	27.316895	78.797774
76.650391	26.909180	78.840185
78.688965	25.686035	78.879979
79.096680	27.316895	78.917341
79.096680	31.394043	78.953091
84.396973	38.732910	78.988764
79.912109	50.556641	79.025933
79.912109	45.256348	79.063528
76.650391	40.771484	79.099453
79.504395	39.140625	79.132784
76.242676	26.909180	79.163388
77.058105	28.132324	79.190608
79.096680	35.878906	79.214674
81.135254	37.102051	79.237527
84.804687	26.909180	79.261766
83.989258	26.909180	79.289553
80.319824	27.724609	79.320269
72.980957	22.424316	79.349680
68.903809	24.870605	79.371923
69.311523	25.686035	79.383336
82.358398	32.209473	79.386970
77.058105	37.509766	79.388742
75.019531	48.518066	79.388841
64.826660	41.179199	79.382203
55.856934	44.440918	79.360892
59.526367	43.625488	79.319171
65.234375	43.625488	79.259078
67.680664	40.771484	79.186115
76.650391	31.801758	79.106082
80.319824	28.132324	79.025703
77.465820	14.677734	78.948613
80.319824	20.793457	78.874957
83.989258	26.501465	78.806372
83.989258	22.424316	78.745376
83.581543	22.424316	78.692547
79.096680	21.201172	78.646178
77.873535	23.239746	78.603241
78.688965	32.617187	78.562018
68.496094	38.732910	78.519904
67.680664	34.655762	78.471630
69.311523	36.694336	78.414847
79.096680	38.732910	78.353214
78.688965	32.617187	78.292477
77.873535	35.063477	78.234802
81.135254	37.102051	78.180432
82.358398	31.801758	78.131095
79.912109	23.239746	78.087471
82.766113	17.531738	78.049134
80.319824	18.347168	78.016098
84.396973	19.978027	77.988694
82.358398	27.316895	77.967658
79.504395	27.724609	77.951975
79.912109	32.209473	77.939490
77.058105	35.471191	77.928787
79.096680	37.509766	77.918940
73.796387	29.355469	77.908848
74.611816	23.647461	77.896499
79.504395	33.024902	77.882329
83.989258	41.586914	77.870399
83.581543	44.848633	77.864153
84.396973	37.102051	77.864519
75.427246	20.385742	77.869162
71.757812	3.261719	77.872422
70.942383	8.562012	77.869858
72.573242	19.978027	77.860774
79.912109	17.531738	77.848045
77.873535	22.424316	77.835599
78.688965	33.432617	77.824506
77.873535	34.655762	77.814396
78.688965	37.509766	77.805234
76.650391	44.848633	77.796666
73.388672	44.440918	77.786961
70.534668	39.956055	77.773181
76.650391	41.179199	77.754776
74.611816	29.763184	77.733903
76.242676	23.647461	77.711658
81.135254	23.239746	77.689735
79.912109	31.801758	77.670820
83.989258	28.540039	77.656508
86.435547	25.686035	77.649071
89.697266	24.462891	77.651418
83.581543	21.201172	77.663852
88.474121	22.424316	77.684833
87.250977	27.724609	77.714593
90.512695	26.909180	77.754203
88.066406	33.432617	77.803925
95.405273	43.625488	77.864747
87.658691	34.655762	77.937282
80.727539	34.655762	78.016959
77.465820	39.956055	78.096837
77.873535	30.578613	78.173396
78.688965	26.909180	78.246279
77.465820	34.248047	78.315788
77.873535	28.947754	78.381683
80.319824	21.201172	78.444594
79.504395	24.462891	78.505767
80.319824	19.978027	78.565646
78.688965	12.231445	78.624013
81.135254	13.046875	78.680874
78.688965	25.278320	78.736452
83.173828	30.986328	78.791282
75.427246	35.878906	78.845020
78.688965	40.771484	78.895623
76.650391	35.471191	78.942324
77.058105	35.878906	78.985143
76.650391	38.325195	79.023782
76.650391	28.132324	79.058284
80.319824	24.870605	79.089657
79.096680	23.647461	79.119615
86.843262	21.608887	79.150547
79.096680	15.900879	79.184092
77.465820	22.832031	79.217631
78.688965	21.201172	79.248559
83.989258	21.201172	79.278569
79.096680	26.909180	79.309491
79.096680	27.724609	79.340073
77.058105	33.432617	79.368479
80.319824	44.440918	79.394562
84.396973	48.110352	79.420649
80.727539	32.209473	79.448748
76.650391	24.462891	79.476811
75.427246	25.278320	79.501382
82.766113	19.570313	79.522808
83.581543	29.763184	79.544957
79.912109	27.724609	79.569165
81.135254	24.870605	79.593923
79.504395	13.046875	79.618428
81.542969	19.978027	79.642667
79.504395	28.947754	79.666733
80.319824	22.424316	79.690288
78.688965	28.947754	79.712795
76.650391	30.986328	79.733099
78.688965	35.878906	79.750314
81.135254	35.878906	79.765741
83.173828	47.294922	79.781802
75.834961	39.956055	79.798235
74.611816	32.617187	79.811366
72.980957	26.909180	79.818331
77.465820	19.162598	79.819402
81.542969	22.424316	79.817845
80.727539	29.763184	79.816886
83.581543	28.132324	79.817892
79.912109	19.978027	79.821092
83.581543	21.608887	79.826171
82.358398	26.909180	79.833681
77.058105	17.531738	79.842433
78.688965	20.793457	79.849682
78.688965	23.647461	79.854956
80.319824	30.578613	79.859193
82.766113	31.394043	79.863937
82.766113	47.294922	79.870873
82.766113	47.294922	79.880536
82.766113	41.586914	79.892794
85.620117	29.763184	79.908265
77.873535	17.124023	79.926252
71.757812	21.201172	79.941696
73.796387	25.278320	79.949982
73.388672	24.055176	79.950785
77.873535	18.347168	79.945941
81.542969	17.531738	79.938925
79.504395	25.686035	79.932413
83.581543	18.347168	79.927353
85.620117	22.424316	79.925826
86.843262	24.462891	79.930138
82.766113	31.801758	79.940125
80.319824	30.986328	79.953058
77.058105	35.063477	79.965577
74.611816	28.947754	79.974687
77.465820	33.432617	79.979141
77.465820	44.033203	79.980003
72.573242	29.763184	79.976899
71.757812	30.578613	79.967228
75.019531	33.024902	79.950439
75.019531	28.947754	79.928373
74.611816	14.677734	79.902042
77.465820	16.308594	79.872203
79.504395	23.239746	79.840972
77.873535	20.385742	79.809840
77.058105	30.986328	79.778297
76.650391	40.363770	79.745433
79.504395	38.325195	79.711663
83.581543	32.617187	79.679526
88.066406	43.217773	79.653053
89.289551	44.440918	79.635763
84.396973	48.925781	79.627794
79.912109	47.294922	79.625304
76.650391	35.063477	79.623550
75.427246	26.909180	79.619287
75.019531	29.763184	79.611026
80.319824	28.947754	79.599814
80.319824	26.909180	79.588475
79.912109	19.978027	79.578311
83.581543	27.724609	79.570029
82.766113	26.909180	79.565160
87.250977	38.732910	79.565266
87.250977	42.810059	79.572266
81.135254	39.548340	79.585411
77.873535	34.655762	79.600338
71.350098	36.286621	79.611917
73.388672	40.363770	79.616540
76.650391	40.363770	79.614730
78.688965	43.625488	79.609567
79.504395	44.033203	79.603348
70.534668	38.732910	79.594738
72.573242	31.394043	79.579889
80.319824	20.385742	79.559850
78.688965	16.308594	79.539054
78.688965	27.724609	79.518736
72.573242	30.986328	79.496861
79.096680	28.947754	79.472021
77.465820	37.509766	79.445771
75.427246	41.179199	79.418523
74.611816	44.033203	79.388637
74.611816	46.479492	79.355300
81.135254	55.449219	79.320203
86.843262	44.440918	79.288389
81.135254	28.947754	79.262957
79.504395	20.793457	79.241715
75.019531	21.608887	79.220962
76.650391	27.724609	79.198342
81.542969	19.162598	79.174926
85.620117	16.308594	79.154845
88.474121	20.385742	79.142146
87.658691	19.570313	79.138864
83.989258	28.947754	79.143933
79.504395	21.201172	79.153650
79.096680	22.424316	79.164366
76.242676	28.947754	79.173883
83.173828	30.578613	79.182459
84.396973	33.432617	79.193341
84.396973	40.363770	79.208876
83.173828	43.625488	79.228837
85.212402	42.810059	79.252896
79.912109	45.256348	79.280199
75.019531	36.694336	79.307036
74.611816	36.286621	79.329329
78.688965	34.248047	79.346834
76.650391	24.055176	79.361248
73.388672	15.493164	79.371838
74.611816	22.424316	79.376840
76.242676	23.239746	79.376716
75.427246	17.124023	79.372662
72.573242	24.055176	79.364110
76.650391	37.102051	79.350631
72.165527	41.179199	79.332676
69.311523	35.471191	79.308432
63.195801	45.664062	79.273926
67.272949	37.509766	79.226767
72.165527	39.548340	79.169398
75.427246	52.187500	79.106841
77.058105	43.625488	79.042825
70.942383	28.540039	78.977588
64.418945	32.617187	78.906758
63.603516	28.947754	78.825414
69.311523	24.870605	78.733474
73.796387	24.055176	78.635480
76.650391	32.209473	78.536413
79.504395	30.986328	78.439853
77.465820	42.402344	78.347502
78.688965	43.625488	78.259266
71.350098	48.110352	78.173231
72.573242	46.479492	78.086174
71.757812	46.479492	77.996734
75.019531	44.848633	77.905862
74.611816	45.664062	77.815111
76.650391	44.848633	77.725749
75.427246	34.655762	77.638450
75.427246	22.424316	77.553104
79.504395	19.978027	77.470463
73.388672	19.978027	77.391027
75.019531	11.416016	77.313019
73.796387	24.870605	77.235387
73.388672	29.355469	77.157873
72.573242	28.540039	77.079804
71.757812	35.063477	77.000537
74.611816	35.471191	76.920318
79.096680	40.771484	76.841736
80.727539	45.664062	76.768334
81.135254	51.372070	76.702098
81.135254	44.440918	76.643414
73.796387	40.363770	76.590181
70.942383	36.286621	76.537603
63.195801	30.578613	76.480243
63.603516	26.909180	76.413666
68.088379	27.724609	76.337716
72.573242	23.239746	76.256540
75.019531	15.900879	76.174636
70.534668	17.124023	76.093409
68.903809	23.239746	76.010772
67.680664	30.986328	75.924519
70.534668	39.140625	75.834583
74.611816	39.548340	75.743475
74.611816	37.509766	75.654235
76.650391	33.432617	75.568479
72.573242	48.925781	75.486139
68.088379	47.294922	75.404363
66.457520	37.509766	75.319355
60.749512	30.986328	75.227816
68.496094	26.909180	75.128746
66.457520	28.540039	75.024626
65.642090	25.278320	74.916543
66.457520	24.055176	74.804041
65.234375	17.124023	74.687332
66.865234	10.600586	74.566728
70.942383	15.493164	74.444139
71.757812	18.347168	74.322569
73.796387	24.870605	74.204134
74.611816	24.870605	74.090316
78.688965	33.024902	73.983060
82.766113	41.586914	73.885610
80.319824	52.187500	73.800192
76.650391	46.479492	73.725175
71.757812	35.063477	73.656309
61.157227	23.647461	73.587070
55.041504	12.639160	73.509085
63.195801	20.385742	73.418978
71.350098	22.424316	73.322212
70.534668	19.570313	73.225402
65.642090	18.754883	73.129081
67.272949	21.608887	73.030971
64.826660	29.763184	72.930186
67.272949	31.801758	72.826738
71.350098	32.617187	72.722570
71.757812	24.462891	72.620717
67.272949	22.424316	72.521287
65.642090	32.617187	72.421597
63.195801	43.217773	72.319087
60.749512	42.402344	72.211636
61.157227	36.694336	72.097760
63.603516	34.655762	71.978084
65.234375	32.617187	71.854816
64.826660	28.947754	71.729643
64.826660	29.763184	71.602995
60.749512	30.578613	71.473895
62.380371	25.686035	71.340876
60.749512	26.501465	71.203612
68.088379	40.363770	71.063940
68.496094	42.402344	70.925650
64.418945	36.694336	70.789895
59.118652	28.132324	70.653276
59.118652	25.278320	70.512120
63.603516	38.732910	70.366566
68.903809	44.440918	70.220717
73.388672	42.810059	70.079878
66.865234	38.732910	69.946006
65.642090	43.625488	69.816356
61.157227	42.402344	69.687337
57.487793	45.256348	69.555416
61.564941	33.024902	69.418828
70.942383	28.947754	69.281569
69.311523	16.716309	69.149383
68.496094	18.347168	69.023571
68.496094	24.870605	68.903121
65.642090	24.462891	68.786951
72.165527	38.732910	68.675204
68.088379	31.801758	68.569403
66.865234	35.471191	68.468641
60.749512	35.878906	68.369475
63.195801	40.363770	68.269045
65.642090	39.140625	68.167835
71.757812	25.278320	68.069522
66.865234	27.724609	67.976647
66.865234	32.209473	67.888098
66.865234	37.509766	67.802486
59.934082	38.732910	67.717949
63.195801	30.986328	67.631741
64.011230	22.424316	67.544135
67.272949	12.639160	67.457430
72.980957	20.793457	67.375102
73.796387	28.947754	67.301110
74.611816	41.179199	67.237296
65.642090	37.509766	67.181552
57.487793	29.763184	67.126931
58.303223	30.986328	67.067012
59.118652	37.102051	67.000600
63.195801	44.033203	66.929772
63.195801	42.402344	66.857160
63.603516	40.363770	66.784097
62.788086	37.509766	66.710682
63.195801	33.432617	66.636793
64.826660	26.909180	66.562958
60.749512	15.493164	66.489145
66.457520	2.854004	66.415217
65.642090	7.338867	66.342969
70.534668	14.270020	66.274758
68.496094	24.055176	66.212293
66.865234	35.063477	66.155165
64.826660	36.694336	66.101266
65.642090	33.432617	66.049219
63.603516	24.870605	65.998352
68.903809	31.801758	65.949203
60.749512	30.986328	65.901850
60.749512	31.801758	65.853372
59.118652	34.248047	65.801299
59.118652	29.763184	65.744992
59.118652	30.986328	65.684274
65.234375	35.063477	65.621016
63.603516	26.501465	65.558182
75.427246	22.424316	65.499676
79.504395	22.424316	65.452218
75.427246	28.947754	65.419533
66.457520	30.986328	65.397561
66.865234	39.548340	65.380160
68.496094	31.801758	65.365430
71.757812	20.385742	65.355086
65.642090	30.986328	65.349475
64.826660	33.432617	65.345817
64.826660	37.509766	65.341994
67.680664	38.325195	65.338553
72.573242	53.002930	65.338264
68.496094	37.509766	65.343234
63.195801	29.763184	65.350970
56.264648	31.801758	65.355663
62.788086	32.617187	65.354125
63.603516	19.978027	65.348461
69.719238	25.686035	65.342613
71.757812	35.471191	65.340557
73.388672	28.947754	65.345231
70.534668	37.509766	65.356966
70.942383	39.956055	65.374466
64.826660	33.432617	65.395311
72.573242	29.763184	65.418255
72.165527	33.432617	65.445535
70.534668	37.102051	65.478319
65.642090	31.801758	65.514074
65.234375	34.655762	65.549521
62.788086	25.278320	65.582495
67.680664	29.355469	65.612966
74.611816	36.694336	65.644765
70.534668	35.878906	65.681654
73.388672	24.462891	65.723790
75.427246	23.647461	65.771858
72.573242	25.278320	65.826607
71.350098	25.278320	65.886393
72.165527	23.239746	65.949746
72.573242	30.578613	66.016653
70.942383	31.801758	66.086881
69.719238	37.509766	66.159137
71.757812	41.179199	66.232715
77.465820	44.848633	66.309730
75.427246	43.625488	66.392941
70.534668	39.956055	66.481125
64.826660	24.055176	66.569359
68.088379	25.686035	66.654119
69.311523	33.432617	66.736010
72.573242	35.878906	66.817432
71.350098	33.024902	66.900034
74.611816	21.201172	66.984747
73.388672	24.055176	67.072457
75.427246	19.162598	67.163687
74.611816	24.055176	67.258716
75.834961	27.724609	67.357701
77.465820	27.724609	67.461214
80.319824	30.986328	67.570871
67.680664	36.694336	67.684885
60.749512	48.518066	67.795228
62.788086	43.625488	67.895524
67.680664	39.140625	67.986657
73.796387	33.024902	68.073661
75.834961	32.617187	68.161665
73.388672	33.024902	68.252566
75.427246	24.055176	68.345922
71.350098	24.055176	68.440882
69.719238	23.647461	68.535239
72.573242	35.471191	68.627742
72.573242	28.132324	68.719450
70.942383	31.801758	68.810623
68.903809	26.501465	68.899797
68.496094	31.801758	68.985363
65.642090	28.540039	69.065896
72.165527	35.063477	69.141644
68.088379	37.509766	69.214353
69.311523	36.694336	69.283977
70.942383	41.586914	69.350581
70.534668	33.024902	69.415305
72.573242	32.617187	69.478914
73.388672	31.394043	69.542571
73.388672	27.724609	69.607171
77.465820	15.900879	69.673888
74.611816	18.347168	69.743948
68.496094	21.608887	69.815092
73.388672	21.201172	69.884518
70.942383	30.578613	69.952552
74.611816	34.655762	70.020150
72.573242	35.063477	70.088010
72.573242	36.694336	70.155941
75.427246	46.479492	70.224085
75.427246	44.033203	70.293858
72.980957	41.586914	70.365220
73.796387	40.363770	70.436954
67.680664	29.355469	70.507147
75.834961	30.986328	70.574938
77.058105	32.617187	70.643363
74.611816	27.724609	70.714464
73.388672	11.416016	70.786760
71.757812	12.639160	70.858406
66.865234	23.239746	70.926894
63.603516	20.793457	70.988439
65.642090	27.724609	71.040828
75.834961	32.617187	71.087313
71.350098	40.771484	71.132824
72.980957	43.625488	71.178107
69.719238	49.333496	71.221948
70.942383	47.294922	71.263401
64.826660	37.102051	71.300710
68.088379	35.878906	71.331990
65.642090	22.424316	71.356945
67.680664	24.055176	71.375942
70.942383	26.909180	71.390517
65.234375	27.724609	71.401604
65.642090	20.793457	71.407315
69.311523	28.132324	71.407566
72.980957	40.363770	71.405603
68.088379	38.732910	71.403136
68.496094	42.402344	71.398690
71.757812	43.625488	71.392145
72.165527	39.548340	71.385531
69.719238	34.248047	71.379286
74.611816	35.471191	71.373508
73.388672	34.248047	71.369788
68.496094	29.763184	71.367394
61.564941	32.617187	71.361556
67.680664	28.947754	71.349116
65.642090	30.986328	71.331243
65.234375	28.947754	71.308631
64.011230	33.024902	71.280446
68.496094	28.947754	71.247400
71.757812	23.239746	71.212639
75.019531	19.162598	71.180026
77.058105	21.608887	71.152604
72.165527	28.132324	71.130809
71.757812	15.493164	71.112267
72.573242	15.493164	71.095564
68.088379	31.801758	71.079779
67.272949	45.256348	71.062530
66.457520	46.479492	71.042081
66.865234	36.694336	71.018062
68.496094	38.732910	70.991089
70.534668	31.801758	70.962825
69.311523	28.947754	70.934534
73.388672	25.278320	70.907212
68.903809	23.647461	70.881486
70.942383	19.570313	70.856562
59.934082	20.385742	70.829430
60.749512	31.801758	70.795185
64.011230	25.686035	70.752579
64.826660	23.647461	70.704178
65.642090	29.763184	70.651794
64.826660	33.432617	70.596091
66.457520	38.732910	70.537493
66.865234	39.956055	70.476941
66.865234	42.402344	70.415232
66.457520	43.625488	70.352481
67.272949	53.002930	70.288803
71.350098	39.548340	70.225698
72.573242	27.724609	70.165884
72.980957	23.239746	70.111096
73.388672	25.686035	70.061806
68.496094	18.347168	70.016853
59.118652	14.270020	69.971161
59.118652	22.424316	69.918600
59.118652	20.385742	69.857072
64.011230	29.355469	69.788334
66.457520	35.878906	69.715998
67.680664	43.625488	69.643194
70.942383	53.818359	69.572163
71.757812	52.187500	69.505148
61.564941	43.217773	69.440645
57.487793	27.316895	69.372395
64.011230	35.063477	69.297536
66.457520	33.024902	69.219442
67.680664	31.394043	69.141664
60.749512	28.947754	69.063734
62.788086	29.355469	68.982954
67.272949	34.655762	68.899969
66.865234	33.432617	68.817749
63.603516	37.509766	68.736453
63.603516	24.870605	68.654305
64.826660	30.578613	68.570893
60.341797	24.055176	68.485827
62.380371	28.540039	68.397772
60.341797	34.655762	68.306314
59.934082	53.818359	68.211059
59.934082	58.303223	68.111531
55.856934	46.479492	68.006849
56.672363	38.325195	67.895430
55.856934	28.540039	67.776838
59.118652	27.724609	67.652166
59.118652	36.286621	67.523320
52.187500	39.140625	67.389661
52.187500	27.724609	67.247905
53.002930	18.347168	67.096962
57.080078	29.763184	66.938907
63.195801	23.239746	66.778190
63.195801	29.763184	66.619384
61.157227	37.102051	66.463642
55.449219	37.509766	66.308418
56.672363	41.179199	66.150638
57.487793	53.002930	65.989941
55.856934	53.818359	65.826950
50.556641	47.702637	65.659904
51.779785	39.548340	65.486272
53.002930	38.732910	65.306105
57.487793	35.063477	65.122032
58.303223	37.509766	64.937314
60.749512	31.801758	64.754424
58.710937	19.162598	64.574435
64.011230	19.978027	64.398369
65.642090	24.462891	64.228911
64.418945	26.501465	64.067866
63.195801	35.471191	63.914488
57.487793	32.617187	63.766127
53.002930	26.909180	63.618212
53.818359	27.724609	63.467239
57.080078	36.694336	63.313611
59.934082	39.548340	63.160287
57.487793	41.179199	63.009129
59.934082	42.810059	62.860304
59.934082	40.771484	62.714506
62.380371	34.655762	62.573035
61.564941	35.471191	62.436915
56.672363	23.647461	62.304977
55.856934	10.600586	62.174169
60.749512	7.746582	62.044151
63.603516	22.424316	61.918128
64.826660	30.986328	61.799159
65.234375	41.179199	61.688547
59.934082	41.586914	61.585174
60.749512	35.471191	61.486356
57.487793	37.509766	61.390172
52.595215	43.625488	61.293817
53.410645	43.625488	61.194187
53.818359	34.248047	61.090787
56.672363	29.763184	60.985073
61.157227	29.763184	60.880046
61.564941	24.462891	60.778998
56.672363	25.686035	60.681963
56.672363	27.724609	60.586397
51.372070	18.347168	60.489656
54.633789	14.270020	60.389968
56.672363	22.424316	60.288428
62.788086	27.724609	60.188760
60.341797	28.540039	60.094091
55.041504	22.424316	60.003222
55.449219	28.540039	59.912756
59.934082	35.878906	59.822771
63.195801	47.294922	59.736659
59.934082	52.187500	59.656370
49.741211	39.548340	59.578190
51.372070	33.024902	59.496323
53.410645	31.394043	59.409736
53.818359	26.501465	59.320341
58.710937	28.540039	59.230393
60.749512	28.947754	59.143226
63.603516	29.763184	59.061910
61.564941	31.801758	58.987766
63.603516	36.694336	58.920761
57.487793	24.055176	58.859571
59.934082	28.132324	58.801961
60.749512	24.055176	58.747723
59.118652	26.909180	58.697403
59.526367	36.694336	58.650342
62.788086	48.518066	58.607083
63.603516	51.779785	58.569535
59.118652	44.848633	58.537586
59.526367	53.002930	58.508980
56.672363	48.925781	58.481883
51.372070	31.801758	58.453469
51.372070	14.270020	58.420295
49.741211	18.347168	58.380789
53.002930	13.046875	58.335281
56.264648	18.754883	58.286232
59.934082	28.540039	58.237389
57.487793	24.055176	58.190935
60.749512	28.947754	58.147346
62.788086	33.024902	58.108146
64.826660	45.256348	58.075640
59.934082	53.002930	58.049879
55.041504	53.002930	58.027266
42.810059	36.286621	58.000612
45.256348	16.308594	57.963060
53.002930	17.531738	57.915250
53.002930	14.270020	57.862411
53.002930	11.008301	57.806859
53.410645	12.231445	57.748884
59.934082	4.892578	57.690585
61.157227	-7.746582	57.635892
59.934082	0.000000	57.586735
59.934082	21.201172	57.542593
53.002930	44.033203	57.501143
49.741211	52.187500	57.457809
47.294922	53.410645	57.408545
39.140625	57.080078	57.349387
35.878906	64.826660	57.275062
36.286621	77.465820	57.182586
35.063477	74.611816	57.071916
35.471191	61.564941	56.943564
32.617187	61.564941	56.797609
34.248047	53.818359	56.634039
21.608887	58.710937	56.450609
17.124023	65.642090	56.241023
12.639160	66.865234	55.999833
14.677734	58.303223	55.725723
16.308594	70.534668	55.420797
17.531738	83.173828	55.088483
14.677734	92.143555	54.730694
7.746582	100.297852	54.345960
2.854004	108.044434	53.930232
-2.446289	116.606445	53.479566
-3.261719	117.829590	52.991735
-3.261719	127.207031	52.467116
-9.785156	122.722168	51.905998
-13.454590	124.760742	51.306234
-10.600586	134.545898	50.667314
-11.416016	141.069336	49.992004
-14.270020	152.077637	49.282234
-14.677734	158.601074	48.538492
-12.639160	154.931641	47.762670
-25.686035	139.030762	46.954573
-29.355469	140.661621	46.109230
-30.986328	155.747070	45.223433
-33.840332	166.755371	44.297376
-33.432617	173.686523	43.332036
-35.471191	183.879395	42.329136
-33.840332	188.771973	41.290895
-40.363770	193.256836	40.218615
-42.810059	208.750000	39.111323
-48.518066	214.865723	37.967271
-50.556641	201.818848	36.785148
-61.157227	215.681152	35.562569
-62.380371	231.174316	34.296224
-56.264648	227.912598	32.987607
-55.856934	221.389160	31.643006
-46.479492	213.642578	30.269750
-47.294922	214.865723	28.875399
-51.372070	228.320312	27.463338
-55.856934	250.744629	26.032320
-65.234375	267.053223	24.578816
-69.311523	271.538086	23.098196
-70.942383	271.538086	21.588212
-68.496094	272.353516	20.050495
-66.865234	284.584961	18.489203
-68.903809	286.623535	16.908009
-72.573242	293.554688	15.307869
-69.719238	293.146973	13.689610
-75.019531	300.078125	12.054896
-73.796387	307.009277	10.404477
-75.019531	299.262695	8.739728
-81.135254	298.039551	7.061119
-80.727539	291.923828	5.367616
-77.058105	300.893555	3.661244
-78.688965	307.009277	1.945985
-79.096680	315.979004	0.224045
-77.873535	320.463867	-1.502785
-79.912109	332.695312	-3.232470
-83.581543	335.141602	-4.964775
-88.066406	340.849609	-6.701405
-87.658691	348.596191	-8.443550
-86.435547	361.643066	-10.189774
-87.250977	368.981934	-11.937521
-89.697266	361.235352	-13.685635
-91.735840	363.681641	-15.434297
-92.143555	364.089355	-17.183467
-90.920410	369.389648	-18.931711
-89.697266	368.981934	-20.676378
-91.328125	368.574219	-22.415262
-90.920410	357.158203	-24.147224
-91.735840	363.273926	-25.871189
-93.366699	374.689941	-27.586455
-98.666992	372.651367	-29.294080
-93.366699	384.067383	-30.994434
-91.735840	393.037109	-32.684241
-90.512695	394.260254	-34.359632
-99.074707	393.852539	-36.020678
-97.443848	397.929687	-37.670032
-98.666992	405.676270	-39.308205
-96.628418	415.461426	-40.933661
-95.812988	432.585449	-42.544304
-96.220703	425.654297	-44.138256
-104.375000	417.092285	-45.716741
-100.297852	414.238281	-47.282121
-95.812988	424.023438	-48.832167
-97.036133	415.053711	-50.362840
-94.997559	407.714844	-51.872337
-101.928711	404.045410	-53.361103
-91.735840	414.238281	-54.828942
-92.551270	432.585449	-56.271939
-91.735840	432.177734	-57.687241
-94.997559	431.362305	-59.075258
-104.375000	429.731445	-60.439730
-107.636719	446.040039	-61.786932
-106.413574	448.078613	-63.120085
-102.744141	431.770020	-64.437676
-100.297852	432.585449	-65.736135
-101.520996	435.847168	-67.013035
-94.997559	437.885742	-68.266298
-91.735840	433.400879	-69.491716
-91.328125	440.332031	-70.685728
-90.512695	437.478027	-71.847218
-90.920410	444.001465	-72.976011
-96.628418	448.486328	-74.073901
-92.551270	446.855469	-75.143170
-90.512695	463.164063	-76.182814
-86.843262	460.717773	-77.189976
-93.366699	468.872070	-78.164321
-93.366699	476.210937	-79.108775
-91.735840	476.210937	-80.024985
-91.328125	470.095215	-80.912305
-91.735840	468.056641	-81.770575
-95.405273	477.434082	-82.601282
-94.589844	475.395508	-83.406622
-96.220703	481.103516	-84.187863
-94.589844	479.064941	-84.945489
-95.405273	477.026367	-85.679561
-93.366699	469.279785	-86.389839
-88.881836	465.610352	-87.074620
-86.843262	463.979492	-87.730912
-87.658691	467.648926	-88.357282
-87.658691	477.026367	-88.954321
-89.697266	480.288086	-89.523480
-85.212402	479.880371	-90.065316
-75.834961	493.334961	-90.576216
-69.719238	495.781250	-91.049333
-75.019531	499.042969	-91.481597
-68.496094	489.665527	-91.873869
-72.980957	481.103516	-92.226694
-76.650391	468.056641	-92.543095
-75.019531	473.764648	-92.827066
-69.719238	472.541504	-93.078494
-67.272949	472.133789	-93.294735
-64.826660	465.610352	-93.473833
-63.603516	465.202637	-93.615037
-63.195801	472.541504	-93.718521
-62.380371	460.717773	-93.785138
-62.380371	466.018066	-93.815951
-67.272949	477.434082	-93.813622
-64.418945	479.472656	-93.781476
-61.157227	480.288086	-93.719826
-59.934082	489.257812	-93.627291
-58.303223	494.150391	-93.503438
-60.749512	483.957520	-93.349282
-58.303223	488.034668	-93.166572
-58.710937	480.695801	-92.956258
-58.303223	481.103516	-92.719276
-53.002930	473.764648	-92.455585
-54.633789	468.056641	-92.164209
-59.526367	468.056641	-91.847457
-62.380371	465.610352	-91.510562
-57.080078	469.279785	-91.156182
-52.187500	461.940918	-90.782162
-49.333496	468.464355	-90.385072
-48.110352	473.764648	-89.963269
-46.479492	472.541504	-89.516495
-48.925781	482.326660	-89.045816
-41.179199	484.772949	-88.551632
-43.625488	481.511230	-88.032742
-48.518066	486.403809	-87.491346
-48.110352	494.150391	-86.932139
-46.887207	471.726074	-86.357266
-44.848633	455.009766	-85.766755
-44.440918	447.263184	-85.160436
-43.625488	450.117187	-84.538698
-40.363770	448.894043	-83.901501
-33.024902	455.417480	-83.246359
-32.209473	460.717773	-82.569848
-36.286621	452.155762	-81.872361
-38.732910	453.786621	-81.158152
-31.394043	455.417480	-80.429158
-31.394043	461.533203	-79.683601
-26.501465	463.164063	-78.919802
-28.540039	462.348633	-78.137356
-31.394043	471.318359	-77.338465
-33.024902	473.356934	-76.527178
-26.909180	479.880371	-75.704908
-25.278320	454.194336	-74.869804
-23.647461	430.954590	-74.020433
-26.501465	424.838867	-73.157799
-29.763184	435.847168	-72.285337
-27.724609	433.400879	-71.406337
-28.947754	428.100586	-70.522126
-27.316895	419.946289	-69.633548
-25.686035	419.538574	-68.740770
-31.801758	432.585449	-67.845243
-23.647461	447.263184	-66.948673
-20.385742	441.147461	-66.048518
-18.754883	441.147461	-65.141599
-19.162598	445.224609	-64.227571
-22.832031	443.593750	-63.308466
-25.686035	424.838867	-62.388264
-27.724609	422.800293	-61.470981
-26.909180	415.461426	-60.559054
-22.424316	409.753418	-59.652129
-19.162598	416.684570	-58.747504
-22.424316	426.877441	-57.843991
-21.608887	425.654297	-56.943131
-24.870605	405.268555	-56.047035
-25.686035	395.891113	-55.158144
-24.462891	395.891113	-54.278029
-20.793457	406.083984	-53.405824
-19.162598	416.276855	-52.539409
-14.270020	408.530273	-51.676328
-11.008301	405.268555	-50.813480
-15.900879	420.354004	-49.950047
-17.531738	423.615723	-49.089106
-22.424316	405.676270	-48.234875
-22.424316	405.268555	-47.390947
-9.377441	411.384277	-46.555599
-4.077148	394.260254	-45.721074
-14.270020	388.959961	-44.884677
-13.046875	393.037109	-44.051012
-19.978027	385.290527	-43.224689
-16.716309	379.582520	-42.408706
-11.008301	379.582520	-41.602058
-7.338867	385.698242	-40.800352
-7.338867	388.144531	-40.000779
-10.600586	388.959961	-39.203974
-9.785156	380.397949	-38.412150
-6.931152	380.805664	-37.625591
-4.892578	389.775391	-36.842635
-11.823730	393.852539	-36.063943
-14.677734	388.144531	-35.293995
-11.823730	387.329102	-34.535775
-7.746582	384.067383	-33.787726
2.446289	383.659668	-33.044604
-1.223145	380.397949	-32.301506
-7.338867	364.089355	-31.560067
-11.416016	355.935059	-30.826239
-9.785156	353.488770	-30.103769
-14.270020	366.127930	-29.394294
-11.823730	368.981934	-28.699255
-4.077148	371.020508	-28.016587
-0.815430	370.205078	-27.340877
2.446289	371.020508	-26.667914
9.377441	375.097656	-25.993889
5.708008	375.913086	-25.316026
6.931152	364.904785	-24.634995
-0.815430	350.227051	-23.954012
-1.223145	355.935059	-23.277647
-6.931152	344.111328	-22.610148
-7.338867	336.364746	-21.955030
-8.154297	335.957031	-21.314346
-4.077148	328.210449	-20.687581
2.854004	322.910156	-20.071014
8.969727	323.725586	-19.458512
12.231445	335.141602	-18.844643
8.562012	333.918457	-18.227758
5.300293	334.733887	-17.610570
4.892578	334.733887	-16.996526
7.746582	337.180176	-16.386450
7.338867	333.510742	-15.779517
3.669434	335.141602	-15.176652
8.562012	332.695312	-14.579054
9.377441	322.094727	-13.985290
8.969727	318.017578	-13.394205
5.300293	312.309570	-12.807262
6.523437	313.532715	-12.226604
4.077148	317.609863	-11.653519
6.931152	304.970703	-11.088483
9.377441	291.923828	-10.530223
8.562012	293.962402	-9.977198
13.454590	305.786133	-9.428254
17.531738	305.786133	-8.880355
19.570313	308.640137	-8.330065
17.531738	309.455566	-7.776467
12.639160	298.039551	-7.222110
7.338867	295.185547	-6.672112
7.746582	301.301270	-6.130815
5.708008	305.786133	-5.600106
7.746582	293.146973	-5.080493
8.969727	291.516113	-4.571162
6.523437	289.885254	-4.071647
8.154297	279.692383	-3.582562
12.639160	278.061523	-3.102558
14.677734	278.876953	-2.628406
10.600586	262.976074	-2.159162
9.377441	264.199219	-1.697024
7.746582	264.606934	-1.244298
6.931152	263.383789	-0.802425
4.077148	274.799805	-0.372985
7.746582	279.692383	0.043386
14.677734	270.722656	0.449840
11.823730	265.422363	0.850255
12.639160	269.091797	1.245021
6.523437	269.907227	1.632050
8.562012	267.868652	2.008823
8.562012	268.276367	2.374873
9.785156	255.637207	2.731159
7.746582	249.113770	3.077855
11.823730	245.444336	3.415353
13.454590	247.890625	3.745750
12.231445	236.882324	4.070628
15.085449	236.882324	4.390430
13.454590	241.774902	4.705801
7.746582	236.474609	5.015002
11.823730	244.628906	5.315633
5.708008	252.783203	5.606803
2.854004	250.744629	5.885741
6.931152	243.813477	6.150675
8.154297	251.967773	6.403674
5.708008	252.375488	6.646084
7.746582	242.998047	6.877703
5.708008	244.628906	7.098667
6.523437	236.882324	7.308908
6.931152	232.805176	7.508689
12.639160	229.543457	7.700202
14.677734	225.874023	7.887264
10.600586	216.496582	8.071377
11.416016	215.681152	8.251090
12.639160	217.312012	8.426093
19.570313	214.865723	8.599092
19.570313	216.496582	8.773958
17.124023	227.504883	8.951603
9.377441	230.766602	9.128393
12.639160	232.397461	9.300325
17.531738	229.951172	9.468403
15.493164	220.573730	9.635517
13.454590	202.634277	9.801213
13.454590	201.411133	9.963775
19.570313	200.187988	10.124245
18.754883	196.518555	10.285548
19.570313	189.995117	10.448870
19.570313	183.879395	10.614161
16.308594	184.694824	10.780516
23.647461	198.964844	10.947926
23.647461	207.934570	11.119167
20.385742	195.295410	11.294955
21.201172	193.256836	11.473401
24.462891	199.780273	11.654625
24.870605	204.265137	11.840345
25.278320	199.372559	12.031342
19.570313	207.119141	12.225996
22.424316	202.634277	12.421796
21.201172	201.818848	12.618163
14.677734	208.750000	12.813258
9.377441	193.256836	13.001793
8.969727	187.548828	13.179261
17.531738	181.025391	13.346621
21.201172	173.686523	13.509510
21.201172	170.424805	13.672135
26.501465	174.501953	13.836695
27.316895	176.540527	14.005927
23.647461	176.948242	14.180300
22.832031	172.871094	14.357468
21.201172	176.132812	14.535298
18.347168	178.986816	14.711753
15.900879	178.986816	14.884140
14.677734	177.763672	15.050104
14.677734	176.948242	15.208478
20.793457	176.948242	15.360725
15.900879	187.141113	15.508889
16.716309	183.471680	15.652251
15.900879	175.317383	15.789806
15.493164	163.901367	15.921351
14.270020	152.893066	16.046272
18.754883	154.931641	16.165165
18.754883	151.669922	16.280214
22.424316	159.824219	16.393613
20.385742	161.862793	16.506712
24.870605	166.755371	16.620475
24.870605	165.532227	16.736573
24.462891	166.755371	16.855851
28.132324	169.201660	16.978788
24.462891	170.424805	17.105946
24.462891	165.124512	17.236036
22.424316	161.862793	17.367289
27.316895	165.124512	17.499729
27.316895	156.562500	17.635198
25.686035	153.708496	17.774273
16.716309	145.961914	17.913432
17.531738	140.661621	18.047597
21.201172	137.399902	18.175890
27.316895	139.438477	18.302192
25.278320	141.477051	18.430100
28.132324	139.846191	18.560693
25.686035	138.623047	18.694034
19.978027	148.000488	18.827823
23.647461	150.854492	18.959221
20.385742	152.485352	19.087770
21.201172	154.931641	19.212930
22.424316	150.854492	19.334614
24.462891	141.477051	19.454244
29.355469	145.146484	19.574467
37.102051	144.331055	19.700269
28.132324	139.030762	19.834264
23.647461	138.623047	19.972084
20.385742	133.322754	20.107843
24.055176	130.876465	20.239563
27.316895	129.245605	20.369216
31.801758	131.691895	20.500615
30.578613	123.945312	20.636436
33.432617	131.284180	20.777620
30.578613	135.361328	20.924204
29.355469	139.030762	21.074719
27.316895	134.545898	21.226900
28.132324	140.253906	21.379334
32.209473	145.961914	21.532813
31.394043	139.438477	21.689271
36.286621	141.884766	21.850336
37.509766	145.961914	22.018307
28.132324	137.399902	22.192160
28.540039	121.499023	22.366948
22.832031	110.490723	22.538694
31.394043	99.074707	22.706715
34.248047	88.066406	22.874752
33.024902	96.628418	23.046053
39.548340	110.490723	23.222112
43.217773	122.722168	23.406599
38.732910	123.945312	23.601400
35.471191	119.052734	23.803595
32.209473	116.606445	24.008888
35.063477	121.499023	24.215101
29.355469	121.499023	24.421120
23.647461	108.452148	24.622988
24.870605	102.744141	24.816504
30.986328	99.482422	25.002594
33.024902	103.559570	25.185467
38.325195	106.413574	25.369148
41.586914	105.190430	25.557584
36.286621	97.851562	25.752074
35.471191	100.705566	25.949999
29.763184	105.190430	26.147675
31.394043	100.297852	26.342119
26.501465	101.113281	26.531348
27.316895	100.297852	26.713470
29.355469	95.405273	26.888294
36.694336	100.297852	27.059182
38.325195	123.945312	27.230950
41.179199	136.992188	27.406914
38.732910	123.945312	27.587983
37.509766	113.344727	27.772879
33.024902	102.744141	27.958771
35.471191	85.620117	28.143383
29.763184	79.504395	28.325188
34.248047	82.358398	28.502942
34.248047	84.804687	28.677501
41.179199	82.766113	28.851824
39.956055	91.328125	29.029058
41.179199	79.912109	29.210386
45.664062	77.058105	29.396930
47.294922	80.727539	29.591364
40.771484	82.766113	29.793447
34.655762	88.881836	29.998016
25.686035	99.890137	30.197459
28.132324	95.812988	30.386123
27.724609	89.289551	30.563121
30.578613	80.727539	30.729972
33.432617	82.358398	30.889103
39.140625	85.620117	31.044446
35.471191	89.697266	31.198793
38.325195	85.212402	31.352349
35.471191	74.611816	31.504775
38.325195	72.573242	31.655960
34.655762	73.388672	31.805589
37.102051	77.058105	31.953039
36.286621	79.912109	32.098361
39.548340	81.135254	32.242569
37.102051	85.212402	32.386420
37.102051	88.066406	32.529351
34.248047	82.358398	32.669859
33.024902	70.942383	32.806088
29.763184	64.418945	32.935837
32.209473	68.496094	33.057873
33.024902	74.611816	33.173060
37.102051	75.019531	33.283727
40.363770	72.573242	33.393178
36.286621	67.680664	33.503066
37.509766	55.449219	33.612292
34.248047	51.372070	33.719485
40.771484	58.303223	33.824947
38.732910	58.710937	33.930680
32.617187	62.380371	34.035597
29.355469	59.118652	34.135018
29.355469	65.642090	34.225770
41.179199	71.757812	34.310397
47.294922	75.834961	34.396908
48.110352	77.465820	34.491659
41.179199	66.457520	34.594391
39.956055	58.303223	34.700887
37.102051	58.710937	34.807650
35.878906	62.788086	34.912415
37.102051	59.118652	35.014090
34.655762	53.818359	35.112389
32.209473	44.848633	35.205753
31.394043	50.964355	35.292166
37.102051	59.934082	35.372282
33.432617	56.672363	35.448121
32.209473	53.818359	35.519049
33.024902	52.187500	35.583821
36.286621	59.118652	35.643611
42.810059	59.118652	35.702225
41.179199	68.088379	35.763509
39.548340	70.534668	35.827706
39.956055	67.680664	35.893440
39.548340	61.564941	35.960249
38.732910	50.556641	36.027694
38.325195	47.294922	36.095033
41.586914	45.256348	36.162628
44.033203	46.887207	36.232644
44.848633	45.256348	36.307257
42.810059	44.440918	36.386713
37.509766	48.518066	36.468462
36.694336	41.586914	36.548778
39.956055	40.363770	36.626679
41.179199	42.810059	36.704013
42.402344	41.586914	36.782545
44.440918	43.625488	36.863637
42.402344	48.925781	36.947946
43.625488	42.402344	37.035023
47.294922	35.878906	37.125721
47.294922	30.986328	37.222030
48.110352	31.801758	37.324774
44.440918	42.402344	37.433017
41.586914	43.625488	37.543933
44.033203	38.732910	37.655464
44.440918	27.316895	37.768106
45.664062	23.239746	37.882870
48.925781	33.432617	38.001145
51.372070	35.878906	38.125326
48.518066	32.209473	38.256406
45.664062	28.132324	38.392329
45.256348	28.132324	38.530376
48.925781	42.402344	38.670306
48.110352	47.294922	38.813493
39.548340	50.556641	38.957926
40.771484	47.702637	39.099004
42.402344	53.410645	39.235555
41.179199	34.655762	39.368495
40.363770	15.900879	39.497421
44.033203	18.347168	39.622594
45.664062	20.385742	39.746193
47.702637	16.308594	39.870517
48.110352	10.600586	39.997008
48.518066	11.416016	40.126293
39.140625	13.046875	40.255967
36.286621	20.793457	40.380306
39.956055	24.870605	40.496424
38.325195	28.132324	40.605319
45.664062	30.986328	40.709240
48.518066	43.625488	40.812481
46.479492	41.586914	40.917854
41.586914	25.278320	41.023547
45.664062	24.055176	41.127399
48.110352	28.540039	41.230884
42.810059	24.055176	41.334873
42.810059	33.432617	41.437092
47.702637	40.771484	41.537407
46.887207	28.947754	41.638155
41.586914	11.416016	41.738675
39.956055	15.493164	41.835445
40.363770	14.677734	41.926390
48.110352	16.716309	42.013500
44.848633	16.308594	42.100178
44.033203	18.347168	42.186458
45.664062	18.754883	42.271412
44.848633	27.316895	42.355438
42.402344	33.024902	42.437848
44.848633	27.724609	42.517772
44.440918	23.239746	42.595773
47.294922	17.531738	42.673036
57.080078	18.347168	42.753475
51.779785	17.124023	42.841359
42.402344	16.308594	42.933583
34.248047	19.978027	43.021390
36.694336	18.347168	43.098785
38.325195	15.085449	43.165729
39.140625	6.523437	43.224339
44.033203	9.377441	43.277073
45.664062	15.900879	43.327355
46.887207	14.677734	43.377707
46.887207	18.347168	43.429144
53.818359	24.462891	43.483704
54.633789	32.617187	43.545045
53.002930	23.239746	43.614614
48.925781	22.424316	43.690254
40.771484	17.124023	43.766896
42.402344	12.231445	43.839489
43.217773	8.154297	43.907067
41.179199	-2.446289	43.970110
44.033203	-6.523437	44.028648
42.402344	-4.077148	44.083360
48.110352	6.931152	44.135755
55.449219	12.231445	44.190380
50.964355	14.270020	44.251255
47.294922	14.677734	44.316638
44.033203	8.562012	44.382296
38.325195	-1.630859	44.443969
38.325195	-7.746582	44.497917
43.217773	-8.562012	44.544220
42.402344	-2.446289	44.585532
43.217773	6.523437	44.623106
44.033203	-2.854004	44.657501
44.440918	-6.931152	44.689574
44.848633	-7.746582	44.719933
45.664062	-9.785156	44.749158
45.664062	-11.008301	44.777806
46.887207	-9.377441	44.806408
48.925781	-3.261719	44.836115
44.848633	-9.785156	44.867167
48.518066	-4.892578	44.898827
53.002930	-3.261719	44.933069
49.741211	-4.892578	44.972205
47.702637	-4.484863	45.014899
50.556641	10.600586	45.059768
42.810059	11.416016	45.105595
35.063477	6.931152	45.146933
44.033203	13.046875	45.180194
43.217773	0.407715	45.208173
43.217773	-4.892578	45.233006
44.848633	-3.261719	45.255025
48.518066	-2.446289	45.276154
53.818359	-16.308594	45.300161
47.294922	-22.424316	45.328925
43.625488	-19.162598	45.359201
41.586914	-11.823730	45.386711
42.810059	-3.669434	45.409840
48.110352	-0.815430	45.430259
48.110352	3.261719	45.451177
51.779785	6.523437	45.474905
48.110352	10.600586	45.502255
45.664062	9.377441	45.531427
43.217773	0.815430	45.559417
41.179199	-3.261719	45.583785
44.440918	-5.708008	45.603814
47.702637	-8.154297	45.621712
48.110352	-12.639160	45.640237
50.556641	-15.900879	45.661053
44.033203	-21.201172	45.683713
45.664062	-26.501465	45.705755
47.702637	-22.424316	45.726861
51.372070	-16.716309	45.749515
48.518066	-13.046875	45.775336
55.041504	-6.931152	45.805333
52.595215	-1.223145	45.841320
53.818359	0.000000	45.883736
53.818359	4.892578	45.932247
51.779785	-5.300293	45.986310
47.702637	-17.531738	46.043475
44.848633	-15.900879	46.100114
38.325195	-22.424316	46.151908
33.024902	-24.462891	46.193453
31.801758	-20.385742	46.220349
37.102051	-23.647461	46.232589
39.548340	-28.132324	46.233931
47.294922	-34.655762	46.229580
57.487793	-33.024902	46.227188
53.818359	-31.394043	46.233095
50.964355	-27.316895	46.246919
53.002930	-23.239746	46.266358
51.372070	-21.201172	46.291031
49.741211	-22.424316	46.319925
52.595215	-18.754883	46.352283
55.041504	-15.900879	46.389627
55.856934	-15.900879	46.433942
55.856934	-13.454590	46.485935
57.080078	-17.124023	46.545741
47.294922	-19.978027	46.611013
45.664062	-23.647461	46.676189
44.848633	-27.316895	46.737562
47.702637	-27.316895	46.795133
53.818359	-24.462891	46.851905
55.041504	-27.316895	46.912140
55.856934	-33.024902	46.978081
55.041504	-30.986328	47.049934
48.110352	-26.501465	47.125322
49.741211	-24.870605	47.200578
46.887207	-19.570313	47.273915
48.925781	-19.162598	47.344808
43.217773	-22.832031	47.412115
48.518066	-18.754883	47.474857
48.518066	-9.377441	47.534459
47.294922	-15.900879	47.592073
48.110352	-21.608887	47.647299
48.110352	-32.209473	47.700295
48.925781	-39.140625	47.751535
52.595215	-31.394043	47.802436
50.556641	-32.209473	47.854568
48.925781	-26.501465	47.907283
53.002930	-30.578613	47.960180
48.925781	-25.278320	48.013836
45.664062	-25.278320	48.066233
41.586914	-20.385742	48.113517
44.440918	-13.454590	48.153622
47.702637	-9.785156	48.188116
45.664062	-15.900879	48.219144
44.033203	-22.832031	48.246188
53.818359	-11.008301	48.270579
52.595215	-19.570313	48.296802
47.702637	-33.024902	48.325390
45.256348	-33.024902	48.352670
47.294922	-44.033203	48.376639
48.925781	-48.925781	48.398278
50.964355	-50.556641	48.419598
63.603516	-35.878906	48.445411
52.187500	-38.732910	48.479662
48.110352	-20.385742	48.518185
44.848633	-9.785156	48.554748
48.518066	-12.639160	48.587580
47.294922	-20.793457	48.617567
43.625488	-22.424316	48.644163
36.286621	-23.647461	48.663316
39.548340	-33.024902	48.671381
38.732910	-38.325195	48.668423
44.848633	-33.024902	48.656980
52.187500	-37.509766	48.642376
51.779785	-42.810059	48.630123
53.002930	-47.702637	48.622164
51.779785	-45.256348	48.618526
49.741211	-40.771484	48.618160
54.633789	-33.840332	48.620811
52.187500	-40.771484	48.627733
45.256348	-38.325195	48.636903
43.217773	-31.394043	48.643391
38.325195	-27.724609	48.643134
31.394043	-22.832031	48.631512
35.063477	-28.132324	48.605089
43.217773	-35.063477	48.566812
48.110352	-43.625488	48.523792
47.294922	-29.763184	48.480788
56.672363	-32.617187	48.441164
56.672363	-31.801758	48.409522
59.934082	-30.986328	48.388852
61.157227	-23.239746	48.380714
58.303223	-35.063477	48.385299
54.633789	-49.741211	48.399883
55.449219	-42.810059	48.421535
58.710937	-42.402344	48.450233
57.080078	-50.964355	48.487127
53.002930	-63.195801	48.530735
50.964355	-55.449219	48.577602
55.449219	-35.878906	48.626567
53.410645	-20.385742	48.678768
49.741211	-24.462891	48.733148
45.664062	-35.878906	48.786015
48.110352	-41.586914	48.834920
48.110352	-41.179199	48.880205
51.779785	-45.256348	48.923593
54.633789	-42.402344	48.967802
57.487793	-43.625488	49.015961
55.041504	-49.333496	49.069447
52.595215	-50.556641	49.126785
55.041504	-44.440918	49.186454
56.672363	-49.741211	49.249358
55.856934	-48.110352	49.316568
55.041504	-39.140625	49.387605
53.818359	-33.840332	49.461257
55.449219	-36.286621	49.536899
58.710937	-29.355469	49.615755
51.779785	-27.316895	49.697916
51.372070	-24.055176	49.780256
49.741211	-17.531738	49.860215
50.964355	-20.385742	49.937176
55.856934	-26.501465	50.012693
58.303223	-30.986328	50.090287
59.526367	-37.509766	50.172672
61.564941	-38.732910	50.261367
59.934082	-39.140625	50.356957
55.041504	-28.132324	50.457421
54.633789	-28.947754	50.559328
54.633789	-39.548340	50.661005
56.672363	-39.140625	50.762785
55.856934	-39.548340	50.865412
56.672363	-39.140625	50.969062
62.380371	-26.501465	51.075294
59.118652	-23.647461	51.186234
57.080078	-32.209473	51.300804
56.264648	-26.501465	51.416576
53.002930	-28.540039	51.531553
54.633789	-31.394043	51.644152
55.041504	-29.763184	51.754468
52.595215	-33.024902	51.862490
55.449219	-36.694336	51.967779
55.449219	-47.294922	52.071205
54.633789	-45.664062	52.173280
56.672363	-53.818359	52.274065
60.341797	-49.333496	52.375333
62.788086	-44.848633	52.480061
56.672363	-44.848633	52.588626
53.818359	-42.810059	52.697419
53.818359	-39.548340	52.803210
54.633789	-31.801758	52.905488
55.856934	-33.840332	53.005054
62.788086	-35.063477	53.104605
64.826660	-37.102051	53.208534
65.642090	-39.548340	53.319641
65.642090	-41.586914	53.438446
56.264648	-45.664062	53.562228
44.440918	-57.487793	53.682598
44.848633	-62.380371	53.791015
48.110352	-56.264648	53.885873
58.303223	-54.633789	53.972185
59.934082	-45.664062	54.056888
62.788086	-43.217773	54.144249
62.380371	-42.810059	54.235877
63.603516	-43.625488	54.332339
62.380371	-38.325195	54.433530
58.710937	-37.102051	54.537842
56.672363	-48.518066	54.642241
59.934082	-44.848633	54.745435
58.710937	-45.664062	54.848227
51.779785	-49.741211	54.948920
53.410645	-51.372070	55.043969
57.487793	-54.633789	55.133638
61.564941	-57.080078	55.221717
62.380371	-67.272949	55.311614
62.380371	-62.380371	55.404650
63.603516	-65.234375	55.501121
65.234375	-61.157227	55.601842
59.526367	-49.333496	55.706192
55.449219	-41.586914	55.810256
52.595215	-35.878906	55.909547
49.333496	-33.024902	56.000748
48.518066	-39.956055	56.081454
49.333496	-40.771484	56.150984
50.964355	-35.471191	56.210414
47.702637	-41.586914	56.260354
53.818359	-52.595215	56.301502
47.294922	-62.788086	56.334856
48.110352	-68.088379	56.359127
48.925781	-64.826660	56.373632
50.964355	-69.719238	56.379974
53.002930	-60.341797	56.380339
47.294922	-61.157227	56.375103
48.925781	-52.595215	56.362492
51.372070	-52.595215	56.342852
55.041504	-52.187500	56.319200
53.818359	-49.333496	56.293992
52.187500	-41.586914	56.267218
51.779785	-42.402344	56.237692
48.925781	-41.179199	56.204177
47.702637	-42.810059	56.164961
51.779785	-43.217773	56.120023
53.818359	-44.848633	56.072025
58.710937	-45.664062	56.024584
53.002930	-57.487793	55.979330
51.779785	-66.865234	55.934178
57.487793	-61.157227	55.888527
64.826660	-51.779785	55.847054
60.341797	-53.410645	55.813790
52.595215	-49.741211	55.785933
56.672363	-43.217773	55.759093
58.303223	-41.586914	55.733785
59.118652	-38.325195	55.712110
60.749512	-33.024902	55.695211
59.118652	-44.848633	55.683532
58.710937	-56.264648	55.676312
58.710937	-55.449219	55.672716
55.856934	-55.856934	55.671725
50.556641	-53.818359	55.670331
47.294922	-43.625488	55.664163
47.294922	-50.556641	55.650337
48.110352	-64.826660	55.628572
53.002930	-67.272949	55.600964
50.964355	-62.380371	55.570057
55.449219	-60.341797	55.537425
54.633789	-59.526367	55.504786
55.856934	-57.080078	55.473247
52.595215	-58.303223	55.442362
55.041504	-51.779785	55.411384
55.856934	-37.102051	55.380993
53.002930	-30.578613	55.351515
53.818359	-37.509766	55.321869
48.110352	-44.033203	55.290273
50.964355	-48.518066	55.254813
54.633789	-62.380371	55.216666
52.187500	-57.080078	55.178029
51.779785	-61.157227	55.138536
48.518066	-68.496094	55.096553
48.110352	-73.796387	55.050311
53.818359	-60.341797	55.000478
53.002930	-57.080078	54.949947
56.672363	-54.633789	54.900839
61.564941	-56.264648	54.856138
58.303223	-64.826660	54.818370
55.856934	-60.341797	54.786190
44.033203	-53.818359	54.754129
39.548340	-43.217773	54.714184
43.217773	-45.664062	54.662256
48.518066	-47.702637	54.601084
51.779785	-55.041504	54.535756
57.487793	-58.303223	54.471136
62.788086	-63.195801	54.412506
63.195801	-66.457520	54.364049
68.496094	-59.118652	54.328352
65.234375	-58.710937	54.306911
67.680664	-58.710937	54.299423
73.388672	-67.680664	54.307191
68.496094	-65.642090	54.331873
61.564941	-59.526367	54.369784
57.080078	-51.372070	54.414179
55.041504	-48.518066	54.460007
48.110352	-53.002930	54.503084
48.110352	-45.664062	54.539313
48.925781	-52.595215	54.567359
52.187500	-54.633789	54.588849
53.410645	-59.526367	54.606306
58.303223	-59.118652	54.622680
58.710937	-55.449219	54.641001
60.341797	-62.380371	54.663089
55.856934	-75.019531	54.688538
55.856934	-68.088379	54.715238
56.264648	-60.341797	54.742036
55.856934	-53.818359	54.769005
55.856934	-49.333496	54.796002
56.264648	-55.856934	54.822998
57.487793	-61.157227	54.850499
50.556641	-54.633789	54.877384
52.187500	-45.664062	54.900759
51.779785	-39.956055	54.919688
48.925781	-46.479492	54.933818
50.964355	-58.303223	54.942280
54.633789	-66.865234	54.946607
59.934082	-62.788086	54.950838
61.564941	-57.487793	54.959149
61.564941	-64.011230	54.973596
59.934082	-67.680664	54.993886
56.672363	-71.350098	55.018019
57.487793	-70.942383	55.043868
56.672363	-69.719238	55.070685
57.080078	-69.311523	55.098292
56.264648	-59.526367	55.126408
55.856934	-53.818359	55.154553
60.749512	-45.256348	55.183554
56.672363	-40.363770	55.214732
53.410645	-43.217773	55.246244
52.187500	-53.818359	55.274934
55.041504	-55.449219	55.300151
56.672363	-57.487793	55.323633
58.710937	-60.749512	55.347574
61.564941	-55.041504	55.374179
63.603516	-64.011230	55.405869
59.526367	-73.796387	55.443131
59.118652	-76.650391	55.483958
61.157227	-65.642090	55.527397
59.934082	-55.856934	55.573927
55.856934	-56.264648	55.622179
52.595215	-59.118652	55.668706
53.818359	-60.749512	55.711074
53.818359	-47.702637	55.749211
49.741211	-33.840332	55.782521
51.372070	-35.063477	55.809472
53.818359	-47.702637	55.830754
55.041504	-59.526367	55.848636
62.788086	-68.903809	55.866573
63.603516	-69.719238	55.889149
64.011230	-55.041504	55.918701
68.903809	-52.595215	55.956595
61.564941	-67.272949	56.003164
50.964355	-76.242676	56.052609
49.333496	-71.757812	56.096824
55.856934	-68.088379	56.134070
56.672363	-56.264648	56.167839
59.118652	-47.294922	56.201035
55.856934	-53.002930	56.234294
62.788086	-55.041504	56.268326
65.642090	-56.264648	56.306596
62.788086	-58.303223	56.351442
63.195801	-59.526367	56.401875
52.595215	-45.664062	56.454271
48.925781	-45.256348	56.502058
52.187500	-62.380371	56.541539
56.672363	-59.526367	56.574978
60.749512	-68.903809	56.606897
65.642090	-67.680664	56.641936
60.341797	-73.796387	56.682167
59.934082	-69.719238	56.725706
56.264648	-62.788086	56.769786
53.002930	-56.264648	56.811445
53.818359	-59.526367	56.848285
53.410645	-59.526367	56.879951
52.187500	-51.779785	56.906323
57.487793	-45.664062	56.928255
56.672363	-44.848633	56.948174
55.041504	-44.848633	56.966687
50.964355	-41.179199	56.981695
47.294922	-48.925781	56.989808
45.664062	-64.011230	56.987902
45.256348	-64.011230	56.974505
54.633789	-61.157227	56.951972
58.710937	-70.942383	56.926632
59.118652	-68.496094	56.903352
52.187500	-62.788086	56.881526
56.264648	-60.341797	56.858649
59.118652	-58.303223	56.835863
59.934082	-54.633789	56.815973
59.118652	-59.934082	56.799832
60.749512	-48.518066	56.787501
59.934082	-37.102051	56.779250
60.341797	-32.617187	56.775009
61.157227	-42.810059	56.774815
57.487793	-50.556641	56.778056
59.934082	-59.526367	56.783503
56.672363	-55.041504	56.790514
56.264648	-43.217773	56.797833
54.633789	-49.333496	56.803939
49.741211	-68.088379	56.806631
52.595215	-71.757812	56.803812
48.518066	-60.341797	56.794877
51.372070	-63.195801	56.779472
52.595215	-61.157227	56.758654
55.856934	-52.595215	56.734940
55.856934	-44.848633	56.710522
58.710937	-43.217773	56.687063
58.303223	-43.217773	56.665936
56.264648	-39.956055	56.647059
52.595215	-46.887207	56.628207
49.741211	-53.410645	56.606186
50.964355	-62.380371	56.579020
57.080078	-60.341797	56.548471
61.564941	-61.157227	56.519437
59.118652	-60.341797	56.495199
57.487793	-58.303223	56.475030
58.710937	-56.672363	56.457588
56.672363	-57.080078	56.442449
63.603516	-64.826660	56.430592
68.903809	-74.611816	56.426382
64.418945	-61.564941	56.432903
60.749512	-53.002930	56.447734
60.749512	-38.732910	56.467377
59.934082	-32.617187	56.490415
55.041504	-35.878906	56.514956
56.672363	-49.333496	56.538551
51.372070	-50.556641	56.559397
53.410645	-50.964355	56.575775
55.856934	-51.779785	56.588192
55.856934	-49.333496	56.598636
59.118652	-56.672363	56.608684
58.710937	-63.603516	56.619950
55.449219	-63.195801	56.632153
59.934082	-51.779785	56.644595
58.303223	-48.925781	56.658323
55.856934	-53.410645	56.672943
56.672363	-53.818359	56.686900
57.080078	-44.440918	56.700102
57.080078	-37.102051	56.712998
56.672363	-35.471191	56.725589
55.856934	-36.694336	56.737446
53.002930	-35.471191	56.747305
50.964355	-35.063477	56.752996
51.372070	-44.440918	56.752991
45.664062	-45.664062	56.745724
49.741211	-40.771484	56.729714
55.856934	-52.595215	56.707621
65.234375	-69.719238	56.686493
63.603516	-72.980957	56.672411
66.865234	-62.788086	56.667536
60.749512	-56.672363	56.671134
55.041504	-51.779785	56.678961
48.925781	-50.556641	56.684606
51.779785	-53.002930	56.684199
50.964355	-48.518066	56.677693
48.110352	-50.556641	56.664942
44.848633	-46.887207	56.643674
47.294922	-51.372070	56.612476
46.479492	-53.002930	56.572043
48.518066	-47.702637	56.523588
46.479492	-45.664062	56.467846
48.925781	-57.080078	56.405312
42.402344	-61.157227	56.335397
38.325195	-65.642090	56.254652
40.363770	-68.496094	56.160333
45.664062	-64.011230	56.054547
50.964355	-64.418945	55.942636
55.041504	-64.826660	55.830244
59.526367	-67.272949	55.722223
62.788086	-55.449219	55.622774
59.118652	-42.402344	55.533538
55.856934	-36.694336	55.452221
47.294922	-39.548340	55.373621
46.887207	-51.372070	55.292237
46.887207	-53.410645	55.205815
45.664062	-53.818359	55.114248
45.664062	-53.818359	55.017221
47.294922	-49.333496	54.915192
53.410645	-44.440918	54.810957
49.741211	-52.187500	54.707403
50.964355	-73.796387	54.604609
45.664062	-76.242676	54.500934
45.664062	-72.573242	54.394064
52.595215	-65.642090	54.284685
54.633789	-53.818359	54.177201
50.964355	-50.556641	54.073568
51.779785	-49.741211	53.972542
52.187500	-53.410645	53.873683
52.595215	-46.479492	53.777532
48.110352	-48.518066	53.683211
44.440918	-46.887207	53.587521
42.402344	-44.848633	53.486986
41.179199	-50.556641	53.379573
43.625488	-51.779785	53.265172
45.664062	-55.041504	53.145719
51.372070	-61.157227	53.024781
50.964355	-67.272949	52.905980
50.556641	-67.680664	52.790522
51.372070	-67.272949	52.678270
51.779785	-56.264648	52.569625
53.002930	-49.333496	52.465288
51.779785	-49.741211	52.365601
48.110352	-51.372070	52.269173
48.110352	-40.771484	52.173708
45.256348	-39.140625	52.077550
44.848633	-47.702637	51.979224
48.925781	-43.625488	51.879040
53.818359	-39.956055	51.780506
51.372070	-42.810059	51.686651
51.779785	-53.002930	51.597468
52.595215	-61.157227	51.512625
58.303223	-65.642090	51.434049
60.749512	-69.719238	51.365394
64.826660	-74.611816	51.310140
64.418945	-73.796387	51.270413
62.788086	-65.234375	51.245982
65.234375	-48.518066	51.235856
65.642090	-27.316895	51.240363
54.633789	-25.278320	51.256799
43.217773	-35.063477	51.275932
42.402344	-44.440918	51.288515
48.518066	-55.449219	51.293012
51.372070	-50.556641	51.293532
56.672363	-44.848633	51.294754
54.633789	-54.633789	51.299643
56.672363	-46.887207	51.308885
60.749512	-46.479492	51.323880
59.118652	-54.633789	51.346599
55.041504	-72.980957	51.375813
49.741211	-81.542969	51.407234
51.779785	-83.989258	51.437408
53.002930	-75.019531	51.466360
59.526367	-60.341797	51.497008
57.487793	-50.556641	51.532454
48.518066	-43.625488	51.570731
48.925781	-40.771484	51.606529
50.556641	-37.102051	51.638209
55.856934	-47.702637	51.668282
52.595215	-42.810059	51.699144
53.410645	-46.887207	51.730620
53.002930	-54.633789	51.762113
55.041504	-48.518066	51.794126
52.187500	-54.633789	51.826815
52.595215	-64.826660	51.859259
49.741211	-66.865234	51.890149
52.595215	-57.487793	51.918881
52.187500	-59.934082	51.946165
60.341797	-66.865234	51.974715
62.380371	-59.526367	52.009157
57.487793	-49.333496	52.051114
56.672363	-38.325195	52.097955
48.925781	-27.316895	52.145658
43.625488	-22.832031	52.188459
45.256348	-39.548340	52.222144
44.033203	-45.664062	52.246234
43.217773	-45.664062	52.260709
45.664062	-51.372070	52.265883
48.925781	-51.372070	52.264100
51.779785	-53.410645	52.258782
55.856934	-54.633789	52.253524
55.856934	-50.556641	52.251220
53.818359	-51.372070	52.252273
55.041504	-60.341797	52.255780
56.672363	-60.341797	52.262163
49.741211	-52.595215	52.270642
45.664062	-53.410645	52.276828
48.110352	-53.410645	52.277499
49.741211	-51.372070	52.273547
53.002930	-39.956055	52.267542
42.402344	-45.664062	52.258940
38.325195	-50.556641	52.242084
39.548340	-55.856934	52.212762
41.179199	-57.487793	52.171568
49.333496	-51.372070	52.122404
43.625488	-54.633789	52.068896
44.033203	-58.303223	52.010547
42.810059	-66.865234	51.946031
44.033203	-63.603516	51.875482
40.363770	-61.157227	51.798605
49.741211	-53.410645	51.716623
50.964355	-46.479492	51.634138
49.741211	-53.818359	51.554044
48.925781	-52.187500	51.475782
53.002930	-51.372070	51.399673
48.925781	-40.771484	51.326554
50.964355	-35.878906	51.255833
48.110352	-32.209473	51.186725
44.848633	-46.887207	51.117409
38.325195	-62.788086	51.043790
39.956055	-58.710937	50.962285
45.664062	-53.410645	50.873980
46.479492	-55.449219	50.782916
47.294922	-56.672363	50.691457
46.479492	-49.741211	50.600145
44.033203	-53.002930	50.508213
47.294922	-51.372070	50.415142
44.848633	-48.518066	50.321510
43.217773	-49.333496	50.226585
50.556641	-40.771484	50.130953
50.964355	-37.509766	50.038281
51.372070	-36.286621	49.950782
44.848633	-43.217773	49.866920
51.372070	-40.771484	49.785012
44.848633	-39.956055	49.705056
47.294922	-30.578613	49.625977
48.925781	-39.140625	49.547818
48.925781	-55.856934	49.472118
48.925781	-71.757812	49.399274
47.294922	-78.688965	49.328806
44.440918	-71.757812	49.259072
43.217773	-66.865234	49.187864
44.033203	-58.303223	49.114144
47.294922	-52.187500	49.039070
50.964355	-44.848633	48.965671
56.264648	-30.578613	48.898127
53.818359	-29.763184	48.839349
51.372070	-39.548340	48.788466
45.664062	-55.041504	48.741747
43.217773	-53.818359	48.694768
43.217773	-51.372070	48.644806
38.732910	-48.925781	48.590226
35.063477	-49.333496	48.527977
39.548340	-52.595215	48.456542
43.217773	-65.642090	48.378770
45.256348	-72.165527	48.298671
53.002930	-72.573242	48.220504
57.080078	-75.834961	48.149940
51.779785	-73.796387	48.089494
51.779785	-64.418945	48.037057
48.110352	-63.195801	47.989964
44.033203	-55.856934	47.945025
39.956055	-53.818359	47.898012
36.286621	-54.633789	47.844892
38.325195	-58.303223	47.783533
39.956055	-55.041504	47.714909
40.363770	-57.080078	47.640920
45.664062	-62.788086	47.563923
47.294922	-67.272949	47.487455
45.256348	-59.526367	47.413286
44.848633	-64.011230	47.340639
50.556641	-73.796387	47.270273
48.110352	-71.350098	47.204406
48.925781	-75.019531	47.143333
47.294922	-71.350098	47.086257
49.741211	-57.080078	47.033058
50.964355	-51.779785	46.984794
48.110352	-51.372070	46.941828
42.810059	-53.410645	46.901393
42.402344	-64.011230	46.859777
44.848633	-62.380371	46.816113
48.110352	-56.264648	46.772575
50.964355	-44.848633	46.732308
46.887207	-44.848633	46.696491
44.033203	-53.410645	46.662820
47.702637	-44.848633	46.629624
49.741211	-48.518066	46.598632
40.363770	-61.157227	46.569348
45.664062	-57.080078	46.538725
51.779785	-53.818359	46.508786
49.741211	-59.118652	46.483599
44.440918	-62.788086	46.462120
44.033203	-60.341797	46.440776
44.033203	-57.080078	46.417976
42.402344	-48.925781	46.393276
42.402344	-44.033203	46.365929
34.248047	-45.664062	46.333515
36.286621	-44.848633	46.292548
37.102051	-43.625488	46.242603
36.286621	-45.664062	46.184888
36.694336	-46.887207	46.119709
36.286621	-55.041504	46.047365
29.355469	-60.341797	45.966330
28.947754	-68.496094	45.873226
36.694336	-61.564941	45.768699
44.848633	-56.672363	45.659481
47.294922	-61.157227	45.552860
48.518066	-52.595215	45.452580
46.479492	-46.887207	45.359209
46.479492	-40.771484	45.271781
42.810059	-35.063477	45.188619
48.925781	-27.316895	45.109297
48.110352	-33.840332	45.035760
44.033203	-48.925781	44.967928
44.848633	-46.887207	44.903473
47.294922	-42.810059	44.842309
45.664062	-40.771484	44.785423
38.325195	-42.402344	44.730539
44.033203	-51.372070	44.674838
43.625488	-54.633789	44.619381
45.256348	-48.925781	44.565928
43.217773	-48.518066	44.514658
48.110352	-45.664062	44.466170
47.294922	-39.956055	44.422209
44.440918	-44.033203	44.382723
45.664062	-41.586914	44.346158
46.479492	-43.217773	44.312527
42.402344	-40.771484	44.281413
50.964355	-32.209473	44.253054
52.595215	-19.570313	44.231211
53.818359	-26.909180	44.219040
48.518066	-41.179199	44.215793
44.848633	-46.887207	44.217642
43.625488	-46.479492	44.220713
48.518066	-42.402344	44.224626
47.702637	-49.333496	44.231373
45.664062	-53.002930	44.241141
46.479492	-53.410645	44.252711
42.810059	-56.264648	44.264918
42.402344	-46.479492	44.275901
44.033203	-47.702637	44.284952
50.964355	-44.033203	44.294722
51.779785	-36.286621	44.309450
51.779785	-35.063477	44.331146
44.848633	-38.732910	44.357865
45.664062	-33.024902	44.385924
40.771484	-36.694336	44.412555
39.548340	-47.702637	44.435117
39.140625	-49.333496	44.451736
39.140625	-46.479492	44.462129
44.440918	-42.810059	44.467851
48.518066	-47.702637	44.472965
51.372070	-48.110352	44.481776
49.741211	-43.217773	44.496249
48.925781	-41.586914	44.515792
47.702637	-32.209473	44.538976
44.033203	-35.471191	44.563791
41.586914	-38.325195	44.587246
36.286621	-30.578613	44.605735
39.140625	-23.647461	44.616788
38.325195	-30.578613	44.620621
39.140625	-30.986328	44.618094
48.925781	-33.024902	44.612283
48.518066	-32.209473	44.608589
50.964355	-38.325195	44.609921
50.964355	-43.625488	44.617227
51.779785	-41.586914	44.631085
48.518066	-41.179199	44.650755
53.002930	-44.033203	44.675633
47.294922	-50.556641	44.705456
43.217773	-59.526367	44.737077
51.779785	-53.818359	44.768988
55.041504	-49.333496	44.805428
50.964355	-37.509766	44.849045
37.509766	-27.316895	44.894647
28.947754	-20.385742	44.931709
22.424316	-20.385742	44.950831
33.024902	-20.385742	44.949915
37.509766	-31.394043	44.934904
44.033203	-35.878906	44.913307
42.810059	-33.840332	44.889729
43.217773	-36.286621	44.865462
41.179199	-42.402344	44.839921
51.372070	-42.402344	44.814904
56.672363	-40.363770	44.796626
48.110352	-49.333496	44.788012
48.110352	-45.664062	44.785529
49.741211	-35.878906	44.787081
48.518066	-38.325195	44.793018
48.518066	-36.694336	44.802921
48.110352	-24.870605	44.816172
46.887207	-17.531738	44.832070
39.956055	-26.501465	44.847908
44.033203	-23.239746	44.860779
47.294922	-25.278320	44.871984
47.294922	-22.424316	44.884370
44.848633	-33.024902	44.898085
47.294922	-43.625488	44.912411
42.810059	-65.234375	44.926771
42.402344	-60.341797	44.939328
42.402344	-36.694336	44.948757
41.179199	-36.694336	44.954761
44.033203	-32.617187	44.957597
46.479492	-33.024902	44.959227
43.217773	-30.578613	44.960880
44.440918	-25.278320	44.961805
48.110352	-23.647461	44.962784
46.479492	-17.531738	44.965633
45.256348	-23.647461	44.970051
45.664062	-29.763184	44.974998
43.217773	-35.471191	44.979695
35.471191	-47.702637	44.980935
39.140625	-41.586914	44.975126
42.810059	-35.878906	44.963449
53.818359	-35.878906	44.951967
51.372070	-45.664062	44.946787
45.664062	-36.694336	44.947736
37.509766	-33.840332	44.948753
36.286621	-33.432617	44.943727
42.810059	-36.286621	44.931868
42.402344	-34.655762	44.916496
50.964355	-30.578613	44.901534
52.595215	-14.677734	44.891801
55.856934	-1.223145	44.891032
48.110352	-15.900879	44.898928
42.810059	-21.201172	44.910483
37.102051	-23.647461	44.919200
37.102051	-29.355469	44.920808
46.479492	-28.132324	44.916591
44.848633	-36.694336	44.911316
39.140625	-47.294922	44.905143
39.548340	-55.449219	44.894798
38.732910	-44.440918	44.878984
39.140625	-39.956055	44.857749
35.878906	-37.102051	44.830506
37.102051	-33.432617	44.796269
36.286621	-29.763184	44.754963
38.325195	-32.209473	44.707381
38.732910	-24.055176	44.654820
43.217773	-19.162598	44.599489
37.102051	-27.724609	44.542429
37.102051	-28.132324	44.481744
35.471191	-30.578613	44.415625
30.986328	-41.179199	44.342355
31.801758	-38.325195	44.259763
32.209473	-39.140625	44.167716
41.179199	-35.878906	44.069525
40.363770	-45.664062	43.970175
39.956055	-40.363770	43.871645
38.325195	-40.771484	43.773144
44.033203	-38.732910	43.675309
38.732910	-30.986328	43.579393
40.771484	-33.024902	43.484658
37.509766	-35.878906	43.389973
34.655762	-26.501465	43.293506
39.140625	-16.716309	43.194263
38.732910	-24.870605	43.093972
39.140625	-27.316895	42.993858
33.432617	-28.947754	42.892624
33.024902	-28.947754	42.787430
34.655762	-32.209473	42.677281
39.140625	-35.063477	42.564444
49.333496	-36.286621	42.454621
43.625488	-40.771484	42.352827
39.140625	-37.509766	42.257303
33.432617	-41.179199	42.162512
33.024902	-40.771484	42.064236
34.248047	-34.655762	41.961343
30.578613	-25.686035	41.853722
31.394043	-19.162598	41.740309
27.316895	-15.085449	41.619879
30.578613	-14.677734	41.491805
27.316895	-18.347168	41.356353
33.432617	-23.647461	41.214751
30.986328	-34.655762	41.069139
39.140625	-36.694336	40.922315
44.033203	-27.316895	40.779416
44.848633	-30.578613	40.645339
38.325195	-32.617187	40.519828
34.655762	-43.625488	40.398447
35.471191	-42.810059	40.277710
36.286621	-33.840332	40.157394
38.732910	-28.132324	40.038891
37.509766	-12.639160	39.923422
37.102051	-15.900879	39.810863
35.471191	-24.870605	39.700237
34.248047	-34.655762	39.590287
45.664062	-25.278320	39.483027
39.956055	-21.608887	39.382623
34.248047	-14.677734	39.287371
28.132324	-8.969727	39.191034
28.540039	-16.716309	39.089155
28.540039	-22.424316	38.980702
32.209473	-40.771484	38.867156
29.355469	-38.732910	38.750046
28.540039	-33.024902	38.628907
38.325195	-31.394043	38.505441
44.848633	-26.501465	38.386523
48.518066	-28.132324	38.279035
45.256348	-26.501465	38.185355
39.548340	-31.394043	38.102707
40.771484	-33.024902	38.027145
43.217773	-26.909180	37.958211
38.325195	-14.677734	37.895999
32.209473	-11.823730	37.836737
29.355469	-19.162598	37.775103
30.578613	-31.394043	37.708487
34.248047	-29.355469	37.638040
28.132324	-25.686035	37.564652
28.132324	-18.754883	37.486286
29.355469	-19.570313	37.401963
31.394043	-25.278320	37.313221
35.878906	-26.501465	37.222923
37.509766	-33.840332	37.134555
37.509766	-38.732910	37.050157
36.694336	-18.754883	36.969852
41.586914	-15.900879	36.894395
35.063477	-20.385742	36.824290
36.286621	-11.823730	36.757547
39.140625	-9.785156	36.693761
35.471191	-20.385742	36.633723
37.102051	-24.462891	36.576577
32.209473	-22.424316	36.520858
19.162598	-27.316895	36.460992
19.978027	-22.424316	36.389304
28.132324	-25.278320	36.305548
32.209473	-29.763184	36.215929
38.325195	-33.024902	36.126696
43.625488	-20.793457	36.043602
41.586914	-21.201172	35.970313
40.771484	-32.617187	35.906567
37.102051	-38.732910	35.850072
33.432617	-32.209473	35.797453
34.248047	-23.239746	35.745911
36.286621	-15.085449	35.695453
44.848633	-13.046875	35.649615
38.325195	-24.055176	35.611558
36.286621	-22.832031	35.579255
34.248047	-24.870605	35.549159
29.355469	-28.132324	35.518309
31.394043	-28.947754	35.484203
38.732910	-23.647461	35.448737
38.732910	-28.540039	35.416401
39.548340	-40.363770	35.389229
34.655762	-35.471191	35.366159
34.248047	-36.694336	35.344567
28.132324	-40.363770	35.321301
36.286621	-23.647461	35.295284
34.655762	-19.162598	35.268917
40.771484	-21.201172	35.245136
34.248047	-30.578613	35.224919
36.286621	-28.132324	35.206841
33.024902	-32.617187	35.189324
29.355469	-33.024902	35.170220
33.024902	-24.462891	35.147799
32.209473	-28.947754	35.122986
35.878906	-38.325195	35.097413
28.947754	-40.771484	35.071036
34.248047	-39.956055	35.042633
32.209473	-39.548340	35.012755
35.471191	-35.471191	34.982677
39.140625	-20.793457	34.954582
36.286621	-22.424316	34.930446
41.586914	-22.424316	34.910970
39.956055	-12.639160	34.897571
41.586914	-11.823730	34.890951
39.548340	-19.570313	34.890703
35.063477	-30.986328	34.894717
35.878906	-28.540039	34.900119
37.102051	-20.385742	34.906412
35.878906	-10.600586	34.914085
35.471191	-20.385742	34.922637
36.286621	-27.316895	34.931700
35.471191	-39.140625	34.941347
37.102051	-44.848633	34.951757
37.102051	-39.956055	34.963526
37.509766	-30.578613	34.977116
36.286621	-27.316895	34.992322
35.471191	-28.947754	35.008307
36.286621	-32.617187	35.024482
37.102051	-32.209473	35.041251
39.140625	-27.316895	35.059746
35.063477	-18.754883	35.080085
30.578613	-12.639160	35.099377
24.870605	-18.754883	35.112724
21.201172	-19.978027	35.115240
23.647461	-21.201172	35.104627
21.608887	-33.024902	35.081279
26.501465	-33.024902	35.046654
31.394043	-35.878906	35.004619
28.540039	-39.140625	34.958659
34.655762	-39.140625	34.910394
36.694336	-37.102051	34.862978
37.102051	-39.140625	34.819206
39.956055	-36.286621	34.780459
33.024902	-23.647461	34.746335
25.278320	-19.978027	34.711735
24.870605	-19.570313	34.670718
26.501465	-12.231445	34.621798
29.355469	-4.077148	34.566884
31.394043	-13.046875	34.508767
37.102051	-14.677734	34.450976
40.771484	-13.454590	34.398053
36.286621	-24.055176	34.352083
33.024902	-25.278320	34.310551
32.209473	-19.570313	34.270192
34.248047	-19.978027	34.230246
41.179199	-39.140625	34.193414
37.102051	-36.694336	34.162700
35.471191	-44.033203	34.137109
37.509766	-38.732910	34.115043
30.578613	-33.840332	34.095188
29.763184	-26.501465	34.074144
28.132324	-15.900879	34.049309
27.316895	-4.077148	34.019597
27.316895	4.484863	33.984403
29.763184	-8.154297	33.944440
35.471191	-9.377441	33.902751
28.132324	-12.231445	33.861172
23.239746	-28.947754	33.816100
22.424316	-33.024902	33.763029
26.501465	-37.509766	33.701733
24.462891	-44.033203	33.634043
22.424316	-47.702637	33.559783
27.316895	-36.286621	33.479008
24.055176	-36.694336	33.393277
23.647461	-35.063477	33.302368
23.647461	-31.394043	33.205541
24.870605	-29.763184	33.103380
27.316895	-31.394043	32.997518
25.278320	-20.793457	32.889307
27.316895	-15.085449	32.779073
22.424316	-18.754883	32.666273
24.055176	-15.900879	32.549537
24.055176	-19.978027	32.428737
24.870605	-28.132324	32.304826
27.316895	-22.832031	32.179148
23.647461	-27.724609	32.052448
18.754883	-32.617187	31.922337
22.424316	-38.732910	31.786535
28.132324	-33.840332	31.647585
30.578613	-32.209473	31.510381
28.947754	-28.947754	31.377344
28.540039	-19.162598	31.248104
28.132324	-19.570313	31.121874
21.201172	-20.385742	30.996510
22.832031	-8.562012	30.868783
20.385742	-5.300293	30.737328
19.570313	-10.600586	30.601382
19.570313	-17.531738	30.460219
21.201172	-20.385742	30.314438
19.570313	-28.947754	30.164831
25.686035	-24.055176	30.012905
24.462891	-29.355469	29.861390
27.316895	-35.063477	29.712139
22.424316	-35.471191	29.565099
27.316895	-28.132324	29.419789
30.578613	-21.201172	29.278426
22.424316	-23.647461	29.141836
22.424316	-14.677734	29.006519
25.278320	-12.639160	28.871167
33.024902	-1.223145	28.739459
41.586914	-1.223145	28.618435
35.063477	-7.746582	28.512560
28.540039	-27.316895	28.418366
25.686035	-30.986328	28.329532
22.424316	-19.162598	28.241838
28.132324	-15.900879	28.154362
26.909180	-18.347168	28.069006
22.832031	-18.754883	27.985549
28.132324	-26.501465	27.902922
24.870605	-41.179199	27.822031
29.763184	-38.732910	27.743846
28.947754	-32.617187	27.669827
34.248047	-22.424316	27.602111
31.394043	-18.754883	27.542305
35.063477	-17.531738	27.490969
31.801758	-3.261719	27.448096
34.248047	6.931152	27.413240
33.432617	9.377441	27.386288
28.132324	-1.630859	27.365733
28.132324	-2.446289	27.348307
28.947754	-7.746582	27.332708
30.578613	-22.832031	27.319727
26.909180	-32.209473	27.309367
26.909180	-34.655762	27.300020
28.947754	-30.578613	27.291220
26.501465	-32.617187	27.283383
21.201172	-21.608887	27.274329
24.462891	-25.278320	27.261553
29.355469	-20.385742	27.246843
32.617187	-17.531738	27.234588
30.578613	-19.978027	27.227151
33.432617	-11.008301	27.224858
31.394043	-8.562012	27.227906
30.986328	-5.708008	27.235623
32.209473	-6.931152	27.247359
34.655762	-9.785156	27.264098
32.617187	-17.124023	27.286668
32.209473	-29.763184	27.314245
28.947754	-24.462891	27.344966
29.763184	-27.316895	27.377049
26.501465	-27.316895	27.409116
22.424316	-35.063477	27.438561
20.385742	-33.024902	27.461939
19.570313	-30.986328	27.477144
27.316895	-32.209473	27.485600
32.209473	-18.347168	27.492746
30.578613	-18.754883	27.502811
29.355469	-19.978027	27.515759
27.724609	-18.754883	27.529947
27.316895	-4.484863	27.544017
23.647461	-9.785156	27.556354
22.424316	-11.416016	27.564667
27.724609	-15.493164	27.568916
30.578613	-19.162598	27.572494
26.501465	-16.308594	27.577247
28.540039	-16.716309	27.582261
23.647461	-28.947754	27.586234
26.501465	-37.102051	27.587923
28.132324	-28.132324	27.588072
29.355469	-29.355469	27.588680
29.355469	-35.878906	27.590795
23.239746	-32.209473	27.593061
26.501465	-31.394043	27.593115
25.686035	-19.162598	27.590947
33.024902	-12.231445	27.589019
25.686035	-11.008301	27.589034
24.462891	-19.570313	27.588655
25.278320	-20.385742	27.585544
25.278320	-20.385742	27.579936
17.531738	-23.647461	27.570129
8.562012	-27.724609	27.549897
9.377441	-30.578613	27.513200
18.754883	-35.063477	27.461360
28.132324	-47.702637	27.402720
37.102051	-43.625488	27.347396
46.887207	-30.578613	27.305044
43.217773	-9.785156	27.281652
39.956055	0.815430	27.276173
31.394043	-9.785156	27.282873
28.132324	-14.677734	27.294981
35.471191	-13.046875	27.310205
32.209473	-8.969727	27.330530
32.209473	-17.531738	27.355917
25.278320	-14.270020	27.383433
27.316895	-6.931152	27.409847
32.209473	-13.454590	27.435716
34.248047	-9.785156	27.464678
33.024902	-19.162598	27.498599
