26.909180	8.154297	29.650529
29.763184	11.823730	29.520013
19.978027	16.308594	29.392346
21.201172	21.608887	29.263464
22.832031	18.754883	29.132058
27.316895	20.793457	29.000736
28.132324	25.686035	28.872632
26.501465	32.209473	28.748912
31.394043	29.763184	28.630151
25.278320	35.878906	28.516783
24.870605	48.110352	28.406649
15.900879	48.110352	28.295541
19.978027	32.209473	28.179872
29.355469	15.900879	28.062217
24.870605	2.446289	27.947612
11.823730	2.854004	27.832718
12.639160	16.308594	27.709850
19.978027	39.140625	27.578427
22.424316	32.617187	27.443689
26.501465	17.124023	27.310210
26.501465	11.823730	27.180859
25.686035	17.124023	27.056441
24.870605	30.986328	26.936221
20.793457	39.548340	26.818421
16.308594	36.694336	26.699522
18.347168	30.986328	26.576806
21.201172	31.394043	26.451217
25.686035	9.785156	26.326231
28.947754	10.600586	26.205915
29.355469	6.931152	26.093181
33.024902	0.407715	25.989841
25.278320	0.407715	25.895577
28.132324	12.639160	25.807721
23.647461	19.570313	25.724360
27.316895	12.231445	25.644737
28.132324	11.416016	25.569729
35.878906	12.231445	25.502633
30.578613	9.377441	25.446053
23.239746	25.686035	25.396894
11.416016	35.471191	25.346519
14.677734	36.286621	25.287751
18.347168	35.063477	25.220605
24.870605	29.763184	25.150029
23.239746	24.462891	25.080215
27.316895	24.462891	25.013131
30.578613	25.686035	24.951292
27.316895	41.179199	24.896456
33.024902	38.732910	24.849003
25.686035	26.909180	24.808865
27.316895	19.978027	24.773823
25.278320	15.085449	24.742077
22.424316	11.823730	24.712119
25.686035	17.124023	24.682721
19.162598	22.832031	24.653140
12.231445	26.909180	24.619022
7.746582	25.686035	24.574076
8.562012	11.823730	24.514879
13.454590	19.978027	24.442671
14.270020	25.686035	24.361120
23.647461	24.055176	24.274909
26.909180	19.162598	24.190339
28.132324	24.870605	24.111923
19.978027	14.270020	24.038821
14.677734	-1.223145	23.965515
19.570313	3.669434	23.888448
19.162598	5.300293	23.808945
19.162598	10.600586	23.728268
23.239746	20.385742	23.647521
28.540039	22.424316	23.570326
24.462891	17.531738	23.499388
27.724609	11.416016	23.434604
26.909180	22.424316	23.376193
30.578613	29.763184	23.325319
25.278320	21.201172	23.282015
27.316895	35.471191	23.244699
27.316895	33.432617	23.212817
28.132324	35.471191	23.186907
21.201172	40.363770	23.165332
14.677734	29.763184	23.142778
12.639160	8.562012	23.113530
26.501465	36.286621	23.078777
26.501465	28.132324	23.045555
25.686035	19.162598	23.017255
29.355469	15.900879	22.994220
28.132324	16.308594	22.977627
28.132324	28.540039	22.967524
22.832031	35.471191	22.961914
16.308594	24.055176	22.956100
20.385742	19.978027	22.946349
23.647461	20.385742	22.934135
21.201172	24.055176	22.921725
20.385742	15.900879	22.908497
20.385742	21.201172	22.893433
16.716309	30.986328	22.875452
15.493164	26.909180	22.852457
15.493164	29.355469	22.823092
19.162598	28.540039	22.788320
13.454590	24.462891	22.748850
12.231445	21.201172	22.702582
18.754883	24.870605	22.649442
23.647461	27.724609	22.594189
27.316895	21.201172	22.542226
26.501465	38.325195	22.496456
25.278320	39.140625	22.456861
30.986328	44.848633	22.423846
24.870605	52.187500	22.398218
25.278320	44.440918	22.378063
26.909180	29.763184	22.362190
32.209473	38.325195	22.352778
33.432617	36.694336	22.353078
22.424316	19.978027	22.361793
19.570313	7.338867	22.372322
19.162598	11.008301	22.380071
19.570313	6.931152	22.384303
27.316895	7.746582	22.387314
31.394043	19.162598	22.394405
31.394043	19.978027	22.409559
24.055176	22.832031	22.431540
26.909180	22.832031	22.456908
25.278320	9.377441	22.484627
20.385742	14.270020	22.513168
25.278320	30.986328	22.540751
30.578613	36.286621	22.570068
19.978027	28.132324	22.602294
15.493164	35.878906	22.631910
18.347168	39.548340	22.654609
22.424316	48.518066	22.672076
20.385742	45.256348	22.686884
23.239746	30.986328	22.699889
23.647461	18.347168	22.712229
20.385742	11.008301	22.724028
15.493164	17.124023	22.732408
23.647461	13.046875	22.736228
20.385742	8.969727	22.737834
20.385742	12.639160	22.737752
24.462891	25.278320	22.736274
27.316895	40.363770	22.736356
28.540039	48.518066	22.740818
24.870605	43.217773	22.749887
17.531738	23.239746	22.759809
23.239746	24.870605	22.767215
23.239746	24.462891	22.773283
31.394043	27.316895	22.781708
31.801758	34.655762	22.796766
29.355469	31.394043	22.819854
28.132324	28.132324	22.849084
23.647461	17.124023	22.881685
24.462891	15.900879	22.915005
24.055176	15.493164	22.948120
30.578613	15.493164	22.982719
34.655762	9.785156	23.023088
34.655762	9.785156	23.072781
29.763184	24.055176	23.131107
35.878906	37.509766	23.196651
33.024902	48.110352	23.270194
37.509766	46.479492	23.352583
32.209473	37.102051	23.443543
31.394043	24.055176	23.540771
26.501465	15.493164	23.640774
30.578613	6.931152	23.741607
26.909180	6.931152	23.843020
26.501465	8.562012	23.943917
24.462891	0.815430	24.042500
26.501465	14.270020	24.138129
29.355469	28.540039	24.232122
31.394043	36.286621	24.327025
28.132324	32.617187	24.423661
24.462891	22.424316	24.519708
24.870605	19.978027	24.612414
25.278320	22.424316	24.701190
30.578613	28.540039	24.787836
28.132324	33.432617	24.874604
30.578613	38.732910	24.962150
21.608887	30.986328	25.048630
24.055176	24.462891	25.130577
25.278320	17.124023	25.207359
28.540039	12.231445	25.281272
31.394043	27.724609	25.355153
32.209473	22.832031	25.431495
31.394043	16.308594	25.511072
24.462891	11.823730	25.591618
25.278320	20.793457	25.669363
27.724609	24.055176	25.743603
28.947754	31.801758	25.816238
27.724609	37.509766	25.888231
30.986328	45.664062	25.960068
31.394043	45.664062	26.033182
30.986328	36.694336	26.108402
24.870605	42.402344	26.183840
19.978027	33.432617	26.254800
20.385742	24.870605	26.317342
20.385742	19.162598	26.370710
17.531738	11.416016	26.414621
20.385742	7.746582	26.448709
27.724609	15.900879	26.476059
29.763184	15.900879	26.502089
23.239746	14.677734	26.528117
14.270020	18.347168	26.548868
7.338867	15.900879	26.556313
4.077148	18.347168	26.544190
11.008301	21.608887	26.511688
19.570313	24.055176	26.464796
19.978027	25.278320	26.410643
17.531738	24.462891	26.351435
16.308594	28.947754	26.285964
17.531738	30.986328	26.213618
16.716309	23.239746	26.134893
19.978027	29.763184	26.050909
17.531738	30.986328	25.962851
15.493164	21.201172	25.870031
13.454590	6.523437	25.770513
18.347168	-1.223145	25.664385
19.570313	-6.523437	25.554413
24.462891	4.484863	25.444100
29.355469	10.600586	25.337756
24.055176	17.124023	25.237774
23.647461	19.978027	25.142365
22.424316	31.801758	25.049495
17.531738	35.878906	24.957110
17.531738	36.694336	24.862395
23.239746	39.140625	24.765769
21.201172	29.763184	24.669883
17.531738	22.832031	24.574268
16.308594	15.493164	24.476229
17.531738	14.677734	24.374693
19.978027	7.338867	24.270888
16.308594	3.669434	24.165671
19.570313	5.300293	24.058786
19.978027	8.969727	23.951278
23.647461	16.308594	23.845324
23.239746	21.201172	23.742892
21.608887	27.724609	23.644251
19.978027	29.355469	23.547942
16.308594	38.325195	23.451711
19.570313	47.702637	23.354155
14.677734	44.440918	23.254901
19.978027	43.217773	23.153811
11.823730	28.947754	23.050429
14.677734	25.686035	22.942828
15.900879	17.531738	22.830990
15.493164	24.055176	22.716509
14.677734	21.201172	22.599518
9.785156	19.162598	22.478434
7.746582	24.870605	22.350249
9.785156	17.531738	22.213599
15.493164	19.162598	22.071046
19.162598	24.870605	21.927505
21.201172	29.763184	21.787134
18.754883	27.724609	21.651331
14.270020	25.278320	21.518102
15.493164	23.239746	21.384794
7.746582	30.578613	21.248980
-1.223145	40.363770	21.104811
2.854004	40.363770	20.947141
6.931152	25.278320	20.777604
15.085449	19.162598	20.602271
16.716309	8.154297	20.427373
10.600586	7.746582	20.254466
15.493164	18.754883	20.082142
16.308594	32.617187	19.911733
11.008301	36.694336	19.743654
11.008301	44.848633	19.575405
7.338867	36.694336	19.404814
7.746582	28.947754	19.230346
13.454590	33.024902	19.053109
14.270020	32.617187	18.876736
11.823730	24.870605	18.702658
6.931152	19.162598	18.528597
7.746582	19.162598	18.351736
5.708008	18.347168	18.170997
8.154297	21.201172	17.986531
11.008301	39.956055	17.800199
13.046875	35.471191	17.614959
15.493164	21.201172	17.433421
13.454590	-1.223145	17.256892
18.754883	1.630859	17.086295
25.278320	11.008301	16.925503
18.754883	18.347168	16.777347
15.493164	26.909180	16.638838
19.978027	26.909180	16.507438
27.316895	29.763184	16.386387
28.540039	31.801758	16.280701
24.462891	28.540039	16.191293
24.462891	19.162598	16.115699
24.462891	24.870605	16.052302
27.316895	27.316895	16.001364
26.909180	25.686035	15.963767
22.832031	27.724609	15.938411
21.201172	17.124023	15.922091
22.424316	5.300293	15.912806
28.132324	6.931152	15.911962
40.771484	18.347168	15.925818
37.102051	15.493164	15.960869
27.316895	16.308594	16.014939
24.462891	19.162598	16.080255
24.055176	21.201172	16.152062
28.947754	25.278320	16.230312
33.024902	37.102051	16.318165
30.986328	49.333496	16.417984
29.355469	47.702637	16.528696
34.248047	47.294922	16.649582
33.024902	39.548340	16.781876
37.102051	29.763184	16.926634
35.471191	22.424316	17.084533
35.878906	16.308594	17.255132
26.501465	11.416016	17.434999
28.132324	12.231445	17.619135
31.394043	21.201172	17.806401
32.617187	24.055176	17.998924
34.655762	31.801758	18.198297
27.316895	35.471191	18.403465
25.278320	24.870605	18.610094
22.832031	19.162598	18.814259
26.501465	27.724609	19.015002
24.870605	32.617187	19.213122
30.578613	35.878906	19.410137
26.501465	34.248047	19.607389
26.501465	28.132324	19.804018
27.724609	32.209473	19.999096
28.132324	29.763184	20.193237
26.501465	18.754883	20.386388
31.801758	10.600586	20.579032
36.286621	11.416016	20.774525
32.209473	15.493164	20.975210
36.694336	14.270020	21.180854
38.325195	25.686035	21.392732
36.286621	38.732910	21.611836
36.286621	41.179199	21.836966
34.248047	40.771484	22.066543
37.102051	36.694336	22.299802
30.578613	39.548340	22.535581
31.394043	33.024902	22.771055
32.209473	41.179199	23.004920
34.248047	38.732910	23.238180
29.355469	34.248047	23.470618
26.501465	31.801758	23.699243
17.531738	19.570313	23.918845
16.308594	-1.223145	24.123821
15.493164	-5.708008	24.311403
19.162598	7.338867	24.482398
17.531738	10.600586	24.638662
9.377441	4.484863	24.778663
3.261719	4.077148	24.896674
-3.261719	6.523437	24.986497
1.630859	19.570313	25.045566
1.630859	33.024902	25.076071
0.000000	41.586914	25.080130
-4.484863	39.548340	25.056902
0.815430	44.848633	25.006256
-3.669434	39.548340	24.929916
-1.223145	26.501465	24.828805
1.630859	30.986328	24.705008
-3.669434	21.201172	24.560435
-6.931152	0.815430	24.393285
-6.931152	-8.154297	24.201652
-4.484863	-5.708008	23.986632
-6.523437	-6.523437	23.750261
-9.377441	-4.077148	23.492576
-17.531738	-2.446289	23.210638
-30.986328	0.000000	22.897272
-34.655762	12.639160	22.544059
-38.732910	21.201172	22.146641
-39.956055	25.278320	21.704012
-38.732910	14.270020	21.217293
-44.848633	11.416016	20.687708
-44.848633	8.562012	20.114865
-44.033203	16.308594	19.499933
-50.556641	23.239746	18.844181
-59.934082	27.724609	18.144470
-64.011230	33.024902	17.395817
-68.903809	31.801758	16.595336
-67.272949	31.394043	15.743002
-64.826660	23.239746	14.842276
-68.088379	22.832031	13.897153
-74.611816	17.531738	12.907854
-75.834961	14.270020	11.872814
-78.688965	7.746582	10.792089
-81.135254	12.231445	9.666419
-85.620117	18.347168	8.495813
-83.581543	16.308594	7.281072
-88.474121	19.162598	6.024081
-94.997559	24.870605	4.724326
-95.405273	21.201172	3.380291
-92.551270	19.978027	1.994217
-92.958984	17.124023	0.570751
-104.782715	14.270020	-0.889488
-100.297852	11.416016	-2.388441
-110.490723	23.239746	-3.926204
-111.713867	25.686035	-5.503903
-121.499023	18.347168	-7.123959
-121.499023	13.454590	-8.788214
-128.837891	15.493164	-10.497414
-127.207031	13.046875	-12.251155
-132.507324	30.986328	-14.048038
-135.769043	48.518066	-15.887433
-137.807617	48.110352	-17.769123
-139.846191	39.956055	-19.691677
-143.107910	29.355469	-21.653687
-147.592773	36.286621	-23.654731
-151.669922	39.548340	-25.695221
-158.601074	33.432617	-27.776367
-163.085937	20.385742	-29.900030
-165.124512	18.754883	-32.066764
-171.240234	25.686035	-34.276198
-173.686523	17.124023	-36.528465
-176.948242	12.231445	-38.823007
-170.832520	11.416016	-41.156247
-176.132812	16.716309	-43.523015
-176.948242	27.316895	-45.920699
-178.986816	35.878906	-48.347733
-183.063965	47.294922	-50.802594
-185.102539	39.548340	-53.284654
-189.179687	40.363770	-55.793286
-189.179687	28.947754	-58.327328
-192.033691	24.870605	-60.884786
-192.033691	23.239746	-63.463412
-192.849121	31.801758	-66.060500
-195.295410	28.947754	-68.673556
-196.110840	24.462891	-71.300824
-203.041992	17.531738	-73.941792
-213.642578	11.416016	-76.599704
-211.196289	16.716309	-79.277747
-208.342285	24.055176	-81.972944
-205.488281	29.355469	-84.678795
-212.827148	29.763184	-87.391652
-207.934570	33.432617	-90.110168
-205.488281	28.132324	-92.829944
-203.857422	24.870605	-95.545068
-210.788574	24.870605	-98.253217
-212.827148	21.608887	-100.955612
-217.719727	19.978027	-103.653850
-215.681152	28.132324	-106.347855
-215.273437	28.947754	-109.035095
-216.496582	25.686035	-111.712624
-216.496582	28.947754	-114.378606
-213.642578	40.363770	-117.030332
-218.942871	28.132324	-119.665557
-227.504883	24.462891	-122.286542
-225.466309	13.046875	-124.896535
-231.582031	12.231445	-127.496075
-229.135742	14.677734	-130.084939
-227.912598	25.278320	-132.660891
-227.912598	27.724609	-135.220525
-232.805176	21.201172	-137.762853
-235.251465	20.385742	-140.289202
-235.251465	15.493164	-142.800212
-233.212891	10.600586	-145.294047
-238.105469	18.754883	-147.769078
-233.620605	26.909180	-150.224414
-233.212891	28.947754	-152.657190
-236.066895	28.947754	-155.065228
-236.474609	31.394043	-157.448619
-239.328613	19.978027	-159.807688
-240.144043	19.978027	-162.142881
-235.251465	19.978027	-164.452718
-236.474609	19.162598	-166.733886
-233.212891	17.124023	-168.983787
-228.320312	25.686035	-171.198798
-232.397461	31.801758	-173.375815
-235.251465	32.617187	-175.515878
-238.920898	40.771484	-177.621949
-238.105469	39.548340	-179.695818
-236.882324	35.063477	-181.736979
-233.212891	31.801758	-183.742949
-240.551758	25.686035	-185.712893
-240.144043	7.746582	-187.649159
-245.852051	10.600586	-189.554450
-242.590332	19.162598	-191.430205
-240.144043	24.055176	-193.274933
-236.474609	31.394043	-195.084995
-236.882324	33.432617	-196.857598
-239.736328	22.832031	-198.592577
-237.290039	24.870605	-200.290776
-236.066895	30.986328	-201.951222
-239.736328	34.655762	-203.573560
-240.551758	34.655762	-205.159631
-247.482910	34.655762	-206.712627
-247.890625	25.278320	-208.236376
-247.890625	26.909180	-209.732638
-244.628906	21.201172	-211.200337
-244.221191	16.716309	-212.637403
-241.774902	11.416016	-214.042002
-237.290039	11.416016	-215.411558
-232.397461	8.969727	-216.741936
-233.212891	13.046875	-218.029979
-233.620605	26.501465	-219.275502
-233.212891	35.878906	-220.479445
-239.328613	28.947754	-221.643926
-239.328613	40.363770	-222.772615
-236.474609	44.033203	-223.866806
-236.474609	42.402344	-224.925413
-236.474609	29.763184	-225.948185
-238.920898	28.540039	-226.936315
-239.328613	25.686035	-227.891726
-237.697754	23.647461	-228.815326
-237.290039	17.531738	-229.706728
-234.843750	15.493164	-230.565170
-235.251465	9.377441	-231.389959
-227.912598	9.377441	-232.179396
-226.689453	20.793457	-232.930183
-226.689453	19.978027	-233.640713
-232.805176	22.832031	-234.313349
-242.590332	26.501465	-234.954885
-244.221191	26.909180	-235.573231
-236.882324	25.278320	-236.170288
-230.766602	38.325195	-236.741359
-227.504883	46.479492	-237.281025
-233.212891	35.471191	-237.788320
-233.212891	30.578613	-238.266321
-230.766602	14.677734	-238.716710
-227.504883	20.385742	-239.138121
-231.582031	16.716309	-239.530141
-234.028320	15.085449	-239.895618
-232.397461	8.969727	-240.237297
-233.212891	11.823730	-240.555898
-231.582031	23.647461	-240.851704
-230.766602	20.385742	-241.124579
-224.243164	21.201172	-241.372707
-227.504883	27.316895	-241.594162
-225.466309	27.316895	-241.789386
-224.650879	32.209473	-241.958934
-221.796875	38.732910	-242.102076
-227.912598	41.586914	-242.219753
-225.466309	36.694336	-242.314814
-223.427734	33.432617	-242.387972
-221.389160	27.724609	-242.437892
-222.612305	23.239746	-242.464290
-224.650879	19.978027	-242.468846
-220.981445	21.608887	-242.452974
-218.942871	14.677734	-242.415689
-214.050293	4.077148	-242.354679
-218.942871	11.416016	-242.269263
-214.865723	28.947754	-242.160851
-209.973145	39.956055	-242.028457
-210.788574	38.732910	-241.869880
-209.973145	39.140625	-241.685401
-209.973145	32.617187	-241.476174
-211.196289	38.732910	-241.243647
-211.604004	37.509766	-240.989870
-217.719727	28.132324	-240.718216
-220.166016	29.763184	-240.433741
-218.942871	27.724609	-240.139896
-217.312012	26.501465	-239.836987
-216.496582	28.540039	-239.524350
-213.642578	24.870605	-239.201147
-207.119141	26.501465	-238.864770
-207.119141	25.278320	-238.511993
-204.672852	32.617187	-238.141573
-200.595703	27.724609	-237.752341
-205.895996	22.832031	-237.344169
-205.488281	28.540039	-236.919948
-208.750000	34.655762	-236.482888
-205.488281	40.363770	-236.034778
-204.672852	56.672363	-235.575520
-205.080566	51.372070	-235.104923
-203.449707	32.209473	-234.623566
-199.372559	28.947754	-234.130623
-195.295410	25.686035	-233.623495
-197.741699	26.909180	-233.100787
-197.741699	19.978027	-232.563969
-199.372559	16.308594	-232.015314
-201.003418	8.154297	-231.457222
-197.333984	10.600586	-230.891028
-187.956543	34.655762	-230.313730
-189.179687	36.286621	-229.720869
-191.218262	24.870605	-229.112489
-188.771973	25.686035	-228.490681
-192.441406	30.986328	-227.856921
-191.218262	38.325195	-227.213382
-188.771973	35.878906	-226.560860
-185.510254	38.732910	-225.897986
-189.179687	29.763184	-225.224532
-185.917969	31.394043	-224.541900
-187.956543	24.870605	-223.851008
-181.840820	26.909180	-223.151565
-186.733398	28.947754	-222.443301
-181.840820	24.462891	-221.727039
-184.287109	22.424316	-221.003250
-177.355957	17.531738	-220.271216
-174.501953	25.278320	-219.528331
-174.909668	26.501465	-218.772654
-181.840820	29.763184	-218.006844
-191.218262	35.878906	-217.238376
-189.179687	44.440918	-216.474392
-183.063965	40.363770	-215.715275
-178.579102	39.140625	-214.956677
-175.317383	35.471191	-214.194551
-181.433105	41.586914	-213.428573
-183.063965	48.110352	-212.662507
-180.209961	33.432617	-211.898876
-180.209961	22.424316	-211.137300
-184.287109	25.686035	-210.378808
-181.433105	30.986328	-209.625449
-183.063965	21.201172	-208.877783
-179.394531	17.124023	-208.135480
-177.355957	24.462891	-207.397043
-176.540527	19.978027	-206.660822
-173.278809	23.647461	-205.925671
-171.240234	26.501465	-205.189850
-170.017090	29.763184	-204.451913
-171.240234	31.394043	-203.711875
-168.386230	38.732910	-202.970180
-169.201660	39.548340	-202.226719
-171.240234	39.548340	-201.482567
-168.793945	38.732910	-200.739180
-171.240234	35.471191	-199.997198
-170.832520	30.578613	-199.257871
-167.163086	19.978027	-198.521321
-170.017090	15.900879	-197.786911
-166.755371	13.046875	-197.054994
-162.678223	13.046875	-196.324192
-160.639648	19.162598	-195.591687
-159.416504	16.308594	-194.855862
-158.601074	27.724609	-194.116250
-161.455078	30.578613	-193.373798
-158.601074	26.501465	-192.629952
-160.639648	17.124023	-191.885341
-158.601074	21.608887	-191.140569
-154.523926	21.201172	-190.394819
-152.893066	16.716309	-189.645813
-155.747070	27.724609	-188.893308
-156.562500	30.578613	-188.139537
-154.523926	26.501465	-187.385993
-154.931641	27.724609	-186.632707
-156.562500	24.055176	-185.880567
-159.416504	16.308594	-185.132025
-161.455078	13.046875	-184.390167
-153.300781	23.239746	-183.655149
-149.631348	40.363770	-182.922721
-148.408203	48.925781	-182.189143
-151.262207	39.956055	-181.454382
-150.446777	28.947754	-180.720227
-151.669922	21.201172	-179.988065
-156.562500	25.278320	-179.260289
-148.815918	39.548340	-178.538321
-151.669922	33.024902	-177.820623
-153.708496	41.179199	-177.107753
-153.300781	35.878906	-176.401957
-154.931641	37.102051	-175.704405
-149.631348	39.548340	-175.014814
-150.446777	32.209473	-174.331406
-146.777344	19.162598	-173.652691
-147.185059	18.754883	-172.977562
-145.554199	26.501465	-172.305389
-142.700195	19.162598	-171.635245
-143.515625	23.239746	-170.966028
-142.700195	27.724609	-170.297863
-141.477051	36.694336	-169.630870
-139.846191	42.402344	-168.964411
-139.846191	42.810059	-168.297985
-139.030762	37.102051	-167.631646
-144.738770	27.724609	-166.967164
-140.661621	32.209473	-166.306864
-140.661621	31.801758	-165.650609
-144.738770	26.909180	-164.998906
-143.107910	18.347168	-164.353945
-136.176758	26.909180	-163.714494
-132.099609	25.278320	-163.075833
-132.099609	23.647461	-162.434635
-135.769043	23.239746	-161.791581
-129.653320	19.978027	-161.147753
-129.653320	22.832031	-160.501613
-131.284180	27.724609	-159.852766
-136.992188	35.471191	-159.204373
-133.730469	30.578613	-158.559666
-131.691895	47.702637	-157.918405
-131.284180	51.372070	-157.279072
-131.284180	48.518066	-156.641504
-134.953613	35.063477	-156.007145
-136.992188	26.501465	-155.378981
-129.245605	25.278320	-154.757391
-126.391602	23.239746	-154.138447
-128.837891	19.978027	-153.519786
-131.284180	10.600586	-152.903225
-133.730469	12.639160	-152.291886
-128.022461	25.686035	-151.686604
-127.207031	34.655762	-151.085169
-125.576172	36.694336	-150.485683
-126.799316	31.801758	-149.887939
-120.275879	28.540039	-149.290985
-121.091309	23.647461	-148.692521
-124.353027	29.763184	-148.092817
-125.168457	28.540039	-147.494700
-128.837891	27.724609	-146.900977
-131.691895	30.986328	-146.314963
-132.507324	35.471191	-145.739603
-131.691895	24.870605	-145.175983
-124.760742	19.570313	-144.622127
-121.499023	19.570313	-144.073463
-122.722168	16.308594	-143.527120
-117.014160	19.162598	-142.981851
-110.898438	29.763184	-142.433898
-112.529297	32.209473	-141.879674
-115.383301	43.217773	-141.320045
-113.752441	35.063477	-140.757344
-111.306152	28.132324	-140.191551
-112.529297	23.647461	-139.622009
-114.567871	19.978027	-139.050021
-117.014160	15.493164	-138.478335
-117.829590	16.308594	-137.909572
-117.014160	19.978027	-137.345054
-112.529297	7.746582	-136.783790
-109.267578	12.231445	-136.222795
-99.890137	7.746582	-135.657291
-100.297852	2.854004	-135.082400
-97.443848	-4.077148	-134.496153
-100.705566	-6.931152	-133.899145
-101.520996	4.484863	-133.293668
-100.297852	18.347168	-132.681707
-103.559570	24.870605	-132.064627
-103.967285	27.724609	-131.444808
-101.520996	32.209473	-130.823454
-96.220703	46.479492	-130.198715
-90.512695	77.465820	-129.566477
-93.366699	76.242676	-128.924101
-95.812988	59.934082	-128.273364
-88.881836	56.672363	-127.615544
-88.066406	50.556641	-126.948438
-88.881836	48.925781	-126.271135
-95.812988	41.179199	-125.586843
-94.589844	35.063477	-124.900131
-88.881836	28.132324	-124.211510
-83.581543	28.132324	-123.517078
-77.873535	27.724609	-122.812043
-72.165527	15.900879	-122.091737
-71.757812	21.201172	-121.353003
-69.719238	22.832031	-120.595203
-76.650391	21.201172	-119.820640
-75.834961	27.316895	-119.033780
-71.350098	44.848633	-118.236219
-71.350098	51.779785	-117.426712
-72.165527	43.217773	-116.605685
-70.942383	40.771484	-115.774631
-72.165527	39.548340	-114.934770
-67.680664	36.694336	-114.086528
-69.311523	42.402344	-113.229567
-68.088379	35.471191	-112.364542
-61.157227	34.655762	-111.490692
-61.564941	28.132324	-110.605479
-64.011230	31.801758	-109.709385
-71.350098	28.947754	-108.807164
-71.757812	39.548340	-107.904646
-67.272949	42.402344	-107.003759
-67.272949	41.586914	-106.103125
-63.195801	44.440918	-105.201431
-56.672363	51.372070	-104.295815
-61.157227	48.925781	-103.384088
-62.788086	37.102051	-102.468554
-64.418945	36.694336	-101.552813
-66.457520	39.140625	-100.639656
-62.380371	44.440918	-99.730354
-64.011230	41.586914	-98.824510
-61.564941	34.248047	-97.922061
-63.195801	24.055176	-97.023375
-61.157227	26.909180	-96.128904
-62.788086	32.209473	-95.239181
-57.080078	35.878906	-94.353749
-56.264648	42.810059	-93.470560
-65.234375	40.771484	-92.590867
-69.311523	44.848633	-91.721006
-65.234375	52.595215	-90.864874
-59.118652	46.887207	-90.020069
-59.934082	40.771484	-89.182896
-57.080078	32.617187	-88.351961
-61.157227	34.655762	-87.527641
-65.642090	38.325195	-86.713073
-64.826660	43.625488	-85.911883
-61.157227	39.956055	-85.124092
-64.011230	35.471191	-84.348530
-67.272949	26.909180	-83.586850
-62.788086	24.870605	-82.840507
-56.672363	33.432617	-82.106485
-59.526367	34.655762	-81.381355
-61.564941	46.887207	-80.665906
-67.272949	45.664062	-79.963770
-66.865234	40.771484	-79.278509
-61.157227	47.294922	-78.609864
-55.041504	53.818359	-77.953072
-54.633789	51.372070	-77.303468
-55.856934	35.471191	-76.659907
-56.264648	36.694336	-76.023435
-53.410645	37.102051	-75.394187
-50.556641	33.432617	-74.770352
-58.710937	34.655762	-74.152235
-58.303223	29.355469	-73.543653
-59.118652	23.647461	-72.946955
-55.449219	29.763184	-72.361588
-52.187500	39.140625	-71.785083
-52.187500	36.694336	-71.214966
-52.595215	35.471191	-70.650796
-52.187500	32.617187	-70.093006
-43.625488	37.509766	-69.539534
-44.440918	41.179199	-68.986377
-41.179199	40.771484	-68.431423
-41.586914	39.548340	-67.873945
-45.256348	34.655762	-67.314963
-45.664062	42.402344	-66.757277
-45.664062	44.440918	-66.202590
-46.479492	53.002930	-65.651672
-47.702637	55.856934	-65.105679
-49.333496	52.187500	-64.566249
-48.518066	36.694336	-64.034614
-52.595215	28.947754	-63.512050
-49.741211	25.686035	-62.999874
-47.702637	24.870605	-62.497189
-46.887207	21.201172	-62.002059
-49.741211	19.570313	-61.514446
-42.810059	35.878906	-61.033989
-39.548340	47.294922	-60.557117
-33.024902	51.372070	-60.078923
-34.655762	38.732910	-59.596112
-35.471191	31.394043	-59.108759
-34.655762	30.578613	-58.618224
-38.325195	30.986328	-58.125917
-39.956055	31.801758	-57.634577
-40.771484	36.694336	-57.146711
-39.956055	35.471191	-56.663318
-39.140625	25.686035	-56.184273
-39.548340	16.308594	-55.709349
-34.655762	21.608887	-55.237572
-35.063477	21.201172	-54.766939
-35.063477	23.647461	-54.296821
-37.102051	25.686035	-53.828332
-33.432617	20.385742	-53.361998
-24.870605	31.394043	-52.894568
-27.316895	47.294922	-52.421766
-33.432617	50.556641	-51.944972
-35.878906	38.325195	-51.469369
-32.209473	28.132324	-50.997328
-33.432617	19.978027	-50.528221
-29.763184	24.870605	-50.061123
-30.578613	35.878906	-49.595040
-30.986328	27.724609	-49.129989
-24.462891	16.308594	-48.665126
-28.540039	18.347168	-48.198682
-23.239746	23.239746	-47.730254
-27.724609	21.201172	-47.259890
-27.724609	28.947754	-46.789134
-25.278320	35.878906	-46.319036
-26.909180	45.664062	-45.849202
-22.424316	46.479492	-45.379150
-25.686035	41.179199	-44.908313
-25.686035	34.655762	-44.437757
-27.724609	25.278320	-43.969356
-16.716309	36.694336	-43.501683
-11.416016	42.402344	-43.028556
-14.270020	42.402344	-42.545794
-18.754883	30.578613	-42.055626
-15.900879	23.239746	-41.561257
-19.162598	17.531738	-41.063934
-19.162598	20.385742	-40.565277
-15.900879	26.909180	-40.065870
-13.046875	24.055176	-39.563809
-8.154297	30.578613	-39.056100
-7.338867	36.286621	-38.539998
-15.085449	25.686035	-38.016747
-17.124023	24.055176	-37.491612
-4.892578	34.655762	-36.965123
-4.892578	45.664062	-36.432004
-6.523437	48.110352	-35.890331
-4.077148	40.363770	-35.341274
-7.338867	24.870605	-34.785746
-4.484863	20.385742	-34.224945
-2.446289	23.239746	-33.658520
-0.815430	19.570313	-33.085073
-2.446289	14.677734	-32.504561
-3.261719	20.385742	-31.918555
-3.261719	33.024902	-31.328779
-4.077148	26.909180	-30.736450
-2.854004	36.286621	-30.142414
-0.815430	42.402344	-29.546408
0.000000	55.041504	-28.947541
5.300293	57.080078	-28.344217
5.300293	61.564941	-27.734272
1.630859	42.810059	-27.118219
-2.854004	28.947754	-26.500087
-1.223145	33.024902	-25.883512
-1.223145	37.509766	-25.269394
-0.815430	39.548340	-24.657729
-2.446289	29.355469	-24.049265
0.000000	25.278320	-23.444602
-0.815430	23.239746	-22.843560
5.708008	20.385742	-22.244681
8.562012	23.239746	-21.644531
4.077148	20.385742	-21.041765
0.407715	30.578613	-20.439704
0.000000	37.509766	-19.842163
8.562012	39.140625	-19.248493
10.600586	45.256348	-18.654216
8.562012	51.372070	-18.057199
7.746582	40.771484	-17.458944
4.484863	25.686035	-16.861957
8.562012	24.870605	-16.267662
12.231445	22.832031	-15.674315
14.677734	38.732910	-15.078854
8.562012	41.586914	-14.481358
11.008301	36.694336	-13.884474
5.708008	23.239746	-13.290517
9.377441	12.231445	-12.701155
11.823730	11.008301	-12.115621
12.639160	7.746582	-11.531894
12.639160	20.793457	-10.949434
15.493164	24.055176	-10.367832
12.231445	34.655762	-9.787018
12.231445	38.732910	-9.208530
15.085449	39.548340	-8.632978
17.124023	43.625488	-8.058798
20.385742	40.363770	-7.483854
19.570313	43.625488	-6.906750
18.347168	31.801758	-6.328083
11.823730	24.870605	-5.751102
7.746582	27.316895	-5.181157
6.931152	25.686035	-4.622598
9.785156	23.239746	-4.076245
14.270020	22.832031	-3.539656
12.231445	23.239746	-3.010383
14.677734	22.832031	-2.487899
17.124023	20.385742	-1.971053
19.162598	25.686035	-1.457671
19.162598	34.655762	-0.946421
23.239746	42.402344	-0.436137
20.385742	39.548340	0.074081
22.424316	24.055176	0.583806
19.162598	16.716309	1.091991
22.424316	31.801758	1.597849
20.385742	27.724609	2.101277
22.424316	20.385742	2.602175
22.424316	27.316895	3.100669
19.978027	13.046875	3.596235
16.308594	4.077148	4.086238
20.793457	5.708008	4.569021
22.424316	10.600586	5.046226
27.316895	8.969727	5.520924
28.132324	16.308594	5.995942
32.209473	17.124023	6.473553
32.209473	21.201172	6.955492
35.063477	30.578613	7.442878
28.132324	36.286621	7.934630
25.278320	34.655762	8.426394
19.978027	28.540039	8.912938
21.201172	30.986328	9.390775
23.239746	22.832031	9.859584
23.239746	18.347168	10.320673
26.501465	24.870605	10.775300
24.870605	22.832031	11.224565
24.870605	8.969727	11.668240
28.540039	8.562012	12.106646
26.909180	15.085449	12.541061
28.540039	20.385742	12.971745
37.102051	31.394043	13.401093
36.286621	37.102051	13.833426
36.286621	39.140625	14.269975
35.471191	38.732910	14.709662
30.986328	36.694336	15.150277
26.909180	28.947754	15.587673
26.909180	17.531738	16.018215
25.686035	14.270020	16.440371
28.132324	11.008301	16.854076
35.878906	16.716309	17.262277
34.248047	14.677734	17.669080
39.548340	15.493164	18.076690
39.956055	12.231445	18.487105
37.509766	13.454590	18.900732
41.179199	21.608887	19.316776
29.355469	15.493164	19.732870
34.655762	10.600586	20.144718
32.209473	13.454590	20.551116
34.248047	15.085449	20.952527
32.617187	22.424316	21.348755
38.732910	35.878906	21.740904
39.548340	34.655762	22.131745
36.286621	30.986328	22.522105
39.548340	38.325195	22.910953
37.102051	38.325195	23.298163
34.248047	35.063477	23.682225
44.033203	19.570313	24.063305
36.694336	7.746582	24.443603
30.986328	4.077148	24.819968
31.394043	17.124023	25.187365
35.878906	24.870605	25.545707
43.217773	19.978027	25.899418
44.848633	19.162598	26.253799
41.179199	11.416016	26.610268
38.732910	17.531738	26.966213
37.102051	16.308594	27.318608
32.209473	25.278320	27.664457
35.471191	30.578613	28.001552
36.694336	33.432617	28.330686
42.810059	42.810059	28.654978
42.402344	34.248047	28.977736
41.179199	21.608887	29.299759
46.479492	7.746582	29.621387
49.333496	3.261719	29.945512
44.033203	2.854004	30.273179
43.217773	18.347168	30.601635
44.033203	19.162598	30.928892
47.294922	8.562012	31.255732
48.925781	17.124023	31.584186
49.741211	16.308594	31.915765
50.964355	23.239746	32.251155
54.633789	28.540039	32.591654
48.110352	36.694336	32.937206
46.479492	41.179199	33.284329
44.848633	29.763184	33.629587
45.256348	28.540039	33.971523
45.256348	19.162598	34.309716
45.256348	16.308594	34.644087
48.925781	9.377441	34.975420
51.779785	1.630859	35.306184
56.672363	6.523437	35.639805
56.264648	7.746582	35.979016
50.964355	17.531738	36.322886
54.633789	15.900879	36.668914
49.741211	24.870605	37.015891
49.741211	19.978027	37.361800
47.294922	24.870605	37.704401
50.556641	34.248047	38.043054
48.925781	48.110352	38.378224
53.818359	46.887207	38.711003
57.487793	37.509766	39.044256
60.749512	28.947754	39.381680
59.526367	16.308594	39.725088
57.487793	9.785156	40.073527
55.856934	12.639160	40.424582
55.449219	20.793457	40.776267
59.934082	15.493164	41.128718
61.157227	22.424316	41.484102
63.603516	26.909180	41.844374
64.826660	21.201172	42.210863
60.341797	20.793457	42.583010
61.564941	21.201172	42.958453
59.934082	25.278320	43.335684
62.380371	31.801758	43.714333
53.818359	30.986328	44.092545
53.410645	23.239746	44.465981
48.925781	22.424316	44.830823
59.118652	35.878906	45.187291
62.380371	32.209473	45.540424
62.788086	28.540039	45.894499
64.011230	26.909180	46.250496
60.749512	28.132324	46.607845
63.195801	24.055176	46.965360
61.157227	19.162598	47.322550
61.564941	22.832031	47.678735
62.380371	13.454590	48.033477
62.788086	23.239746	48.387113
63.603516	32.617187	48.739963
59.526367	27.316895	49.091157
59.526367	27.724609	49.438472
59.934082	29.355469	49.780757
63.195801	24.870605	50.118949
61.564941	17.124023	50.454273
66.865234	18.347168	50.787896
65.642090	14.677734	51.121582
57.487793	8.562012	51.453584
59.526367	11.823730	51.779559
68.496094	23.239746	52.100724
70.942383	18.754883	52.422850
66.865234	19.570313	52.748125
55.041504	18.347168	53.071459
53.002930	8.562012	53.384782
59.526367	6.931152	53.685755
57.080078	9.785156	53.976870
61.564941	23.239746	54.259876
63.603516	28.132324	54.537091
63.195801	27.724609	54.810628
63.603516	21.608887	55.080795
64.826660	20.385742	55.347889
61.157227	27.724609	55.611554
63.603516	25.686035	55.870706
62.788086	25.686035	56.125383
60.749512	17.124023	56.375199
60.749512	15.493164	56.618827
59.934082	6.931152	56.855541
71.350098	2.446289	57.087977
70.942383	18.347168	57.321760
70.942383	23.239746	57.559369
70.942383	33.432617	57.800273
71.350098	27.724609	58.044176
69.311523	22.424316	58.290367
68.903809	20.385742	58.537410
76.650391	28.947754	58.786293
76.650391	26.909180	59.040635
70.534668	23.647461	59.300348
68.088379	26.909180	59.561061
69.311523	14.270020	59.819884
72.573242	14.677734	60.077488
77.873535	14.677734	60.337084
77.058105	13.454590	60.601737
70.942383	2.854004	60.870297
75.427246	0.000000	61.140055
77.465820	5.300293	61.411959
78.688965	12.231445	61.688197
76.650391	18.754883	61.968924
77.465820	21.201172	62.253106
83.581543	22.832031	62.541789
80.319824	39.548340	62.837034
76.650391	40.363770	63.137163
69.311523	32.617187	63.436928
68.496094	22.424316	63.730996
68.088379	24.055176	64.016852
71.350098	20.385742	64.294997
70.534668	19.570313	64.566881
72.165527	15.493164	64.833357
73.388672	19.570313	65.095356
73.388672	12.231445	65.353876
80.319824	14.677734	65.610944
77.465820	16.308594	65.869249
75.834961	11.416016	66.128355
73.796387	21.201172	66.385812
77.058105	37.509766	66.640782
73.796387	48.110352	66.893431
79.096680	43.625488	67.144134
76.650391	41.179199	67.394000
77.058105	37.102051	67.643021
77.058105	35.878906	67.890542
69.311523	31.801758	68.134446
67.272949	22.424316	68.370034
72.165527	8.969727	68.595614
74.611816	18.347168	68.814081
76.650391	21.608887	69.028633
73.388672	13.046875	69.240079
74.611816	19.162598	69.447482
73.796387	18.754883	69.650376
72.573242	17.531738	69.848327
69.311523	28.132324	70.039635
71.757812	35.063477	70.223008
69.311523	29.355469	70.398400
77.058105	27.724609	70.567380
77.058105	33.024902	70.733487
71.757812	28.132324	70.897321
69.311523	22.424316	71.055385
65.642090	24.055176	71.204133
70.942383	19.162598	71.342652
71.350098	22.424316	71.473189
74.611816	21.608887	71.598431
72.980957	15.493164	71.719879
72.980957	6.523437	71.837577
76.650391	5.300293	71.952107
77.465820	9.377441	72.065634
80.727539	12.639160	72.180334
83.173828	23.239746	72.298603
82.766113	20.793457	72.422190
77.873535	3.669434	72.549868
77.465820	4.892578	72.678533
86.435547	16.308594	72.808860
83.173828	31.801758	72.944388
82.766113	33.024902	73.085272
80.319824	35.878906	73.229409
80.319824	28.947754	73.375107
85.212402	23.239746	73.522786
83.581543	18.754883	73.674342
79.504395	12.231445	73.828798
75.834961	4.077148	73.982326
71.350098	-0.815430	74.130629
72.165527	-2.446289	74.270683
72.980957	-6.931152	74.402178
71.757812	2.446289	74.525686
71.757812	21.201172	74.641011
75.427246	22.832031	74.749044
79.504395	21.608887	74.853001
77.465820	23.239746	74.955528
72.573242	19.162598	75.055298
75.427246	16.716309	75.149973
77.873535	27.724609	75.240543
78.688965	24.462891	75.329347
73.388672	21.201172	75.416050
75.019531	13.046875	75.498515
77.465820	14.270020	75.576954
75.427246	9.377441	75.652646
75.834961	8.562012	75.725313
76.650391	7.338867	75.794910
82.358398	3.669434	75.863537
85.620117	10.600586	75.935236
86.435547	15.493164	76.013220
88.474121	19.162598	76.098943
88.066406	22.424316	76.193142
86.435547	19.570313	76.295228
86.435547	15.493164	76.403770
80.319824	17.124023	76.516329
77.058105	13.046875	76.628534
77.465820	5.300293	76.737069
80.319824	22.424316	76.842094
76.650391	18.347168	76.944301
72.165527	3.669434	77.041354
68.496094	-6.931152	77.129100
70.942383	-8.969727	77.205405
75.834961	-3.669434	77.272314
79.504395	0.407715	77.334359
80.727539	7.746582	77.395231
81.542969	11.416016	77.456738
79.096680	13.454590	77.518896
81.542969	14.677734	77.581179
84.396973	20.385742	77.644911
86.843262	19.162598	77.712742
83.581543	16.308594	77.785594
91.328125	24.055176	77.864126
84.396973	21.201172	77.949392
79.504395	20.385742	78.038104
82.766113	15.493164	78.126479
78.688965	11.416016	78.213797
77.465820	3.669434	78.298407
77.465820	-0.815430	78.378630
76.242676	0.000000	78.453937
83.989258	-4.077148	78.525864
86.435547	0.815430	78.598880
80.319824	8.969727	78.674573
79.504395	21.201172	78.749957
77.873535	25.686035	78.822504
73.796387	38.732910	78.890123
79.504395	35.063477	78.951897
78.688965	29.763184	79.009738
78.688965	22.832031	79.064836
76.650391	7.338867	79.116506
74.611816	14.677734	79.163244
79.096680	18.347168	79.204795
80.319824	14.270020	79.243493
85.212402	2.854004	79.282532
84.396973	0.815430	79.324533
84.396973	12.639160	79.370175
87.658691	13.046875	79.419888
92.143555	14.677734	79.476327
90.512695	16.308594	79.541911
91.328125	14.677734	79.616694
91.735840	29.355469	79.700287
96.220703	40.363770	79.793810
96.220703	24.055176	79.899177
85.620117	1.630859	80.014134
78.688965	4.077148	80.130737
84.396973	11.008301	80.243862
82.766113	10.600586	80.354296
85.620117	11.416016	80.463439
81.542969	8.969727	80.571233
85.620117	1.630859	80.677306
89.697266	15.900879	80.783767
97.443848	20.793457	80.895733
96.628418	7.338867	81.017764
94.997559	7.746582	81.150454
92.958984	8.562012	81.291574
86.435547	11.416016	81.437381
85.620117	16.716309	81.583332
92.143555	30.986328	81.728839
89.697266	27.316895	81.876340
87.250977	24.870605	82.025375
81.135254	18.754883	82.172183
76.242676	14.677734	82.311571
73.796387	18.347168	82.438908
81.135254	21.201172	82.553964
84.804687	14.677734	82.661352
82.766113	11.008301	82.764627
87.250977	9.377441	82.864937
88.881836	16.716309	82.964560
91.328125	11.008301	83.066101
90.920410	19.162598	83.170973
86.435547	16.308594	83.278164
85.620117	15.900879	83.384779
84.804687	18.347168	83.488912
90.920410	29.763184	83.591529
93.774414	32.617187	83.696341
92.551270	32.209473	83.805922
92.143555	29.355469	83.919940
86.435547	17.124023	84.036041
93.366699	18.347168	84.152722
92.958984	22.424316	84.271870
95.812988	19.978027	84.395604
91.735840	8.154297	84.523906
93.774414	-6.523437	84.655580
96.628418	-9.785156	84.791082
91.328125	4.484863	84.930741
91.328125	28.132324	85.072185
92.143555	29.763184	85.214008
88.474121	19.978027	85.355507
88.474121	16.308594	85.494836
85.212402	15.900879	85.630124
85.212402	15.493164	85.759700
85.620117	17.124023	85.882937
86.435547	26.501465	86.000420
88.474121	16.716309	86.113358
85.212402	17.531738	86.222266
90.512695	19.162598	86.327428
90.920410	16.308594	86.430936
88.881836	11.416016	86.533829
93.366699	11.008301	86.636241
95.405273	11.416016	86.740441
97.036133	3.669434	86.848917
91.328125	7.746582	86.961254
92.958984	11.416016	87.075017
94.589844	15.900879	87.189807
93.774414	15.493164	87.306529
96.220703	24.870605	87.425614
99.890137	27.724609	87.548867
106.413574	33.432617	87.680251
97.036133	29.763184	87.821189
92.143555	17.531738	87.966602
83.581543	8.562012	88.108850
86.843262	6.523437	88.243001
85.212402	5.708008	88.368318
87.250977	7.746582	88.485604
85.212402	13.046875	88.595206
87.250977	18.347168	88.697359
88.881836	15.900879	88.793256
85.620117	19.162598	88.883615
87.250977	19.570313	88.967736
89.697266	12.639160	89.046456
88.066406	15.085449	89.121221
84.396973	14.677734	89.190954
85.212402	20.385742	89.253668
86.435547	25.686035	89.309402
89.289551	38.325195	89.360018
92.143555	31.394043	89.408267
92.958984	19.978027	89.456668
92.551270	7.338867	89.506234
88.066406	5.708008	89.555683
91.328125	15.493164	89.603362
92.143555	10.600586	89.650049
97.036133	1.630859	89.698312
97.036133	0.815430	89.750814
90.512695	10.600586	89.806877
92.958984	19.978027	89.863498
92.958984	25.686035	89.920163
92.143555	29.763184	89.977240
94.589844	25.278320	90.034863
90.920410	17.124023	90.093054
91.328125	28.947754	90.150550
89.289551	23.647461	90.206034
84.804687	7.746582	90.257399
91.328125	8.154297	90.303598
97.851562	19.570313	90.348781
96.220703	26.501465	90.397657
90.512695	22.424316	90.449367
92.551270	17.124023	90.500835
86.843262	7.338867	90.550090
84.396973	4.484863	90.594075
86.843262	13.454590	90.630840
92.958984	22.424316	90.662924
95.405273	25.686035	90.695002
94.997559	36.694336	90.729827
92.143555	34.655762	90.766915
88.066406	21.608887	90.803448
85.212402	14.677734	90.835770
83.989258	11.416016	90.861148
91.735840	9.377441	90.880511
97.851562	18.347168	90.899468
101.113281	16.308594	90.924120
96.220703	14.270020	90.956220
90.512695	4.484863	90.992182
85.620117	9.785156	91.026225
90.512695	15.493164	91.055616
91.735840	16.716309	91.082140
95.812988	14.270020	91.108900
97.851562	12.231445	91.138853
92.958984	17.531738	91.172683
88.474121	19.978027	91.206963
86.843262	23.239746	91.237568
83.581543	26.501465	91.261741
86.843262	27.724609	91.278462
83.581543	22.424316	91.288051
83.581543	14.677734	91.289965
88.474121	7.746582	91.284977
84.396973	12.639160	91.274906
87.658691	15.493164	91.259993
85.212402	14.270020	91.240471
85.620117	15.493164	91.216250
88.066406	15.085449	91.187781
89.289551	15.493164	91.157002
88.066406	20.793457	91.125012
86.843262	24.870605	91.091259
89.289551	29.763184	91.055535
89.289551	26.909180	91.018931
87.250977	35.471191	90.981634
83.989258	31.394043	90.941785
79.504395	21.608887	90.896115
83.173828	24.870605	90.842687
83.581543	21.608887	90.782765
85.212402	33.432617	90.718313
90.512695	26.909180	90.651960
87.250977	12.231445	90.586219
85.212402	1.223145	90.520273
88.881836	-4.077148	90.453237
94.589844	2.446289	90.388124
94.997559	9.377441	90.328984
95.812988	19.978027	90.277536
92.958984	19.978027	90.233272
96.220703	14.270020	90.195484
91.328125	7.746582	90.163598
90.512695	21.608887	90.135451
90.920410	30.578613	90.109297
87.250977	37.102051	90.084110
79.504395	38.325195	90.056016
77.465820	26.909180	90.019607
83.581543	23.239746	89.973800
92.143555	29.763184	89.923994
94.589844	36.286621	89.877170
89.289551	30.986328	89.835385
89.697266	18.754883	89.796420
92.143555	13.046875	89.759651
86.843262	9.377441	89.725019
92.143555	12.231445	89.691713
93.774414	14.677734	89.661528
92.958984	25.686035	89.636390
91.328125	29.763184	89.615668
90.920410	36.286621	89.598006
86.435547	34.655762	89.581462
86.435547	31.801758	89.563541
85.212402	24.870605	89.542824
86.843262	18.347168	89.519245
90.512695	24.870605	89.494458
92.958984	26.909180	89.471543
88.474121	25.686035	89.451510
92.143555	15.085449	89.433500
92.958984	9.377441	89.418404
90.512695	8.562012	89.406856
89.289551	10.600586	89.397314
87.250977	17.531738	89.387877
88.474121	15.900879	89.377479
88.066406	24.055176	89.366174
92.143555	34.248047	89.355195
91.328125	39.140625	89.346357
86.435547	30.986328	89.338931
85.212402	23.647461	89.329755
84.396973	27.724609	89.316776
86.843262	24.870605	89.300072
89.697266	25.686035	89.281650
90.512695	25.686035	89.263964
89.289551	26.909180	89.247857
88.066406	16.716309	89.232523
95.405273	14.677734	89.218908
89.289551	12.639160	89.208875
91.735840	18.347168	89.201632
91.328125	28.947754	89.196629
89.289551	28.947754	89.193665
86.843262	34.655762	89.190828
89.289551	21.608887	89.186939
89.289551	33.432617	89.182691
90.512695	32.209473	89.179069
92.143555	31.394043	89.177120
86.843262	31.801758	89.176555
88.881836	39.956055	89.175492
90.512695	33.432617	89.174061
88.474121	17.124023	89.173138
95.812988	-3.261719	89.173986
95.405273	-10.600586	89.179736
95.405273	6.931152	89.191874
89.289551	22.424316	89.208385
86.435547	18.754883	89.225089
88.881836	18.754883	89.239498
88.474121	15.493164	89.252128
87.250977	15.085449	89.263154
83.173828	26.909180	89.270817
82.358398	29.763184	89.272583
83.989258	30.578613	89.267646
83.173828	24.870605	89.256744
81.135254	24.055176	89.239623
82.358398	19.162598	89.215619
79.912109	19.162598	89.184534
83.173828	18.754883	89.146613
79.504395	14.677734	89.102314
80.319824	11.823730	89.051116
80.319824	24.462891	88.992849
77.873535	26.909180	88.927466
79.096680	18.754883	88.854396
77.465820	19.570313	88.773633
79.912109	21.201172	88.685720
78.688965	17.124023	88.591607
82.766113	18.347168	88.492746
88.474121	26.909180	88.392776
85.212402	27.316895	88.295066
80.319824	24.870605	88.198115
78.688965	18.347168	88.098136
81.542969	8.562012	87.993979
89.289551	16.308594	87.889049
89.289551	19.978027	87.788310
83.581543	11.416016	87.692214
81.135254	5.300293	87.597010
79.504395	9.377441	87.499544
80.319824	13.046875	87.398737
83.581543	15.493164	87.295702
87.658691	18.754883	87.193648
89.289551	16.308594	87.096064
86.435547	18.347168	87.004028
84.396973	28.540039	86.915780
85.620117	31.801758	86.829741
88.474121	29.763184	86.746758
87.250977	29.355469	86.668280
85.212402	29.763184	86.593755
91.328125	26.501465	86.523299
89.289551	23.239746	86.458941
95.405273	24.870605	86.402616
92.958984	17.124023	86.356054
89.289551	8.562012	86.318219
90.512695	14.677734	86.286505
91.328125	30.986328	86.260562
92.143555	34.655762	86.241119
87.250977	29.763184	86.227260
86.843262	23.239746	86.216283
83.581543	14.677734	86.205712
83.173828	16.308594	86.193613
83.581543	24.055176	86.179103
85.212402	24.870605	86.162842
78.688965	16.308594	86.144178
81.542969	29.355469	86.120989
81.542969	24.870605	86.093291
80.319824	19.570313	86.061745
80.727539	16.308594	86.026024
88.881836	8.969727	85.988389
84.804687	5.708008	85.952286
84.396973	6.523437	85.917578
85.620117	19.978027	85.883273
84.396973	24.055176	85.849603
88.474121	25.278320	85.817325
82.766113	22.832031	85.786731
87.250977	25.278320	85.757027
84.804687	30.578613	85.728418
88.881836	35.878906	85.701848
88.066406	35.063477	85.678539
86.843262	34.248047	85.658687
80.319824	25.686035	85.639588
81.135254	16.308594	85.617692
79.504395	21.201172	85.591436
80.727539	21.201172	85.560723
83.173828	22.424316	85.526645
82.766113	13.046875	85.490889
86.843262	5.300293	85.455068
83.581543	2.854004	85.420402
76.242676	2.446289	85.384303
78.688965	13.046875	85.342804
78.688965	19.570313	85.295552
80.319824	20.793457	85.243928
82.358398	21.201172	85.189576
77.465820	26.501465	85.132891
76.242676	24.055176	85.071683
79.096680	25.686035	85.005042
84.804687	26.909180	84.935962
92.551270	23.239746	84.870410
90.512695	19.978027	84.813329
91.328125	19.570313	84.765573
89.697266	15.493164	84.726233
85.212402	11.008301	84.693150
87.658691	19.570313	84.663933
92.551270	27.724609	84.639829
96.220703	28.947754	84.624808
90.512695	24.055176	84.620190
83.173828	24.870605	84.621544
79.912109	26.909180	84.622386
79.504395	29.763184	84.618990
83.989258	32.617187	84.611660
84.804687	31.801758	84.603044
85.620117	32.617187	84.595030
86.435547	28.947754	84.588456
83.989258	24.055176	84.583264
83.989258	27.724609	84.578326
77.465820	21.201172	84.571279
77.465820	18.347168	84.558799
77.465820	11.416016	84.539431
83.173828	21.608887	84.515008
88.066406	27.316895	84.490068
87.250977	24.462891	84.468517
84.804687	21.608887	84.450438
79.912109	19.570313	84.432907
81.135254	17.531738	84.413027
86.435547	18.754883	84.391675
85.212402	21.608887	84.371724
88.474121	30.986328	84.354739
87.250977	37.102051	84.341674
88.066406	55.041504	84.332793
87.250977	43.625488	84.327810
82.766113	23.239746	84.325159
78.688965	2.854004	84.321098
80.727539	1.630859	84.312910
82.358398	1.223145	84.301218
88.474121	5.708008	84.289192
95.405273	14.270020	84.282324
91.735840	20.793457	84.284669
90.512695	29.355469	84.295379
91.328125	28.947754	84.312673
91.328125	22.424316	84.336341
89.289551	24.870605	84.365747
77.873535	28.947754	84.396531
75.427246	38.732910	84.421422
75.019531	38.325195	84.436270
83.581543	39.140625	84.442907
81.135254	25.278320	84.445447
82.766113	22.424316	84.445464
81.135254	22.424316	84.442859
84.396973	17.124023	84.438181
77.465820	13.046875	84.430995
82.766113	19.570313	84.420029
84.804687	20.385742	84.406965
79.912109	18.347168	84.393090
78.688965	21.608887	84.376100
79.504395	24.870605	84.354439
80.319824	28.947754	84.328663
84.804687	28.540039	84.300807
84.396973	22.424316	84.273458
77.873535	13.454590	84.245871
77.058105	21.201172	84.214338
76.650391	31.801758	84.176821
80.319824	30.986328	84.134167
82.766113	21.608887	84.089117
85.620117	19.162598	84.044825
88.474121	23.239746	84.004195
88.066406	15.493164	83.969246
85.212402	8.969727	83.939544
84.396973	7.746582	83.913060
81.135254	4.484863	83.887642
85.620117	19.978027	83.862519
87.658691	30.578613	83.839739
85.212402	29.355469	83.820825
87.658691	30.578613	83.805516
86.843262	31.394043	83.794093
90.920410	23.647461	83.787676
85.620117	22.424316	83.786581
88.474121	24.055176	83.789605
83.581543	26.909180	83.795379
82.766113	24.462891	83.801738
80.727539	28.947754	83.806399
84.396973	27.724609	83.809113
84.804687	28.132324	83.811465
88.066406	32.617187	83.815504
88.474121	28.947754	83.823077
86.435547	17.124023	83.834551
88.474121	19.978027	83.849309
83.581543	24.870605	83.866438
84.396973	22.424316	83.883990
83.173828	25.278320	83.900750
82.358398	40.771484	83.916094
80.319824	35.878906	83.928785
73.388672	25.278320	83.935823
80.319824	25.278320	83.935102
79.504395	26.909180	83.928579
82.766113	20.793457	83.918775
79.912109	18.347168	83.906596
77.465820	8.562012	83.890880
75.834961	0.407715	83.869339
81.135254	12.231445	83.842152
80.319824	16.308594	83.811747
84.804687	19.978027	83.780443
87.250977	28.540039	83.751097
86.435547	26.909180	83.725903
83.581543	29.763184	83.704161
75.834961	35.471191	83.681991
73.796387	42.402344	83.654079
77.465820	38.325195	83.618574
84.396973	37.509766	83.579069
86.435547	38.732910	83.540929
83.989258	30.986328	83.506380
80.319824	24.870605	83.473583
79.912109	16.308594	83.439815
79.504395	25.278320	83.403871
85.212402	23.239746	83.367064
87.658691	22.424316	83.333008
91.735840	19.570313	83.305468
88.881836	12.231445	83.286214
89.289551	16.308594	83.274569
81.135254	18.347168	83.267522
85.212402	19.162598	83.261767
86.435547	28.947754	83.257573
82.766113	40.363770	83.255624
79.504395	40.363770	83.253355
76.650391	38.325195	83.247357
81.135254	39.140625	83.236626
82.766113	24.870605	83.223425
87.250977	18.754883	83.211090
79.912109	16.308594	83.200454
76.242676	23.239746	83.187808
77.873535	26.909180	83.169830
80.727539	23.239746	83.147423
83.989258	23.647461	83.123595
80.319824	21.201172	83.099937
80.319824	22.832031	83.075392
73.388672	22.424316	83.047244
74.611816	25.686035	83.012365
72.573242	34.655762	82.969383
77.873535	44.848633	82.919352
83.173828	36.286621	82.866286
80.319824	33.432617	82.813806
79.504395	33.024902	82.761619
79.504395	24.055176	82.708589
79.096680	24.462891	82.654488
77.465820	21.201172	82.598778
84.804687	17.531738	82.542556
87.658691	11.416016	82.490080
90.512695	18.754883	82.445413
89.697266	16.308594	82.410283
88.474121	11.416016	82.384294
87.658691	15.900879	82.365990
88.881836	19.570313	82.354611
89.697266	23.239746	82.350499
87.658691	29.763184	82.353544
82.358398	34.655762	82.361168
75.427246	31.801758	82.368016
75.427246	31.801758	82.369081
75.427246	38.732910	82.362803
80.319824	31.801758	82.350808
79.504395	28.947754	82.335722
79.504395	18.347168	82.318560
81.542969	16.308594	82.299753
85.212402	11.823730	82.281432
91.328125	19.162598	82.267664
86.435547	26.501465	82.261148
83.581543	29.355469	82.259849
79.096680	33.432617	82.259569
81.135254	33.024902	82.257692
77.873535	33.432617	82.253329
82.766113	39.548340	82.246703
80.319824	36.694336	82.238995
75.427246	28.947754	82.228978
77.465820	20.793457	82.214088
79.504395	18.754883	82.194883
83.581543	15.493164	82.174258
78.688965	24.462891	82.153689
80.727539	25.686035	82.132233
81.135254	24.870605	82.109844
83.173828	22.424316	82.087875
87.250977	24.462891	82.068577
83.581543	24.870605	82.053564
80.319824	14.270020	82.040945
71.350098	14.270020	82.025589
75.427246	18.754883	82.003139
77.465820	21.201172	81.974261
79.096680	18.754883	81.941847
76.650391	14.677734	81.906842
81.542969	17.124023	81.869827
80.727539	24.870605	81.832647
82.766113	36.694336	81.796740
80.727539	34.655762	81.762408
79.504395	32.209473	81.728758
78.688965	24.870605	81.694403
75.427246	18.754883	81.657804
79.912109	12.639160	81.618352
76.650391	17.531738	81.576859
80.319824	22.424316	81.533891
79.096680	24.055176	81.490310
80.727539	33.432617	81.446937
86.843262	37.509766	81.405952
84.396973	34.655762	81.370289
82.358398	34.248047	81.339529
82.766113	38.325195	81.311876
74.611816	37.102051	81.284755
73.796387	30.578613	81.253779
77.465820	26.909180	81.217549
75.427246	24.462891	81.177519
73.388672	24.870605	81.133261
78.688965	25.686035	81.084799
78.688965	22.832031	81.034623
79.096680	19.162598	80.984363
80.319824	19.570313	80.934611
73.388672	18.347168	80.884325
70.534668	18.347168	80.829513
70.942383	24.870605	80.767225
77.873535	28.947754	80.699149
76.650391	37.102051	80.629047
79.912109	44.848633	80.559118
77.873535	47.702637	80.490287
78.688965	43.625488	80.422574
77.465820	36.694336	80.355573
82.358398	35.063477	80.290178
83.989258	35.063477	80.229063
84.396973	53.002930	80.174346
87.658691	52.187500	80.127296
85.212402	31.801758	80.088792
82.766113	18.347168	80.057417
75.834961	13.454590	80.029131
75.834961	14.677734	79.999541
76.650391	15.493164	79.967129
73.796387	18.347168	79.931738
80.319824	17.124023	79.893967
78.688965	15.493164	79.856213
76.650391	21.608887	79.818836
76.650391	36.694336	79.780358
74.611816	39.548340	79.739801
79.912109	30.986328	79.697620
77.465820	29.763184	79.655541
76.650391	21.201172	79.613497
70.942383	18.347168	79.568959
75.834961	16.308594	79.520160
76.650391	11.416016	79.468628
72.573242	11.008301	79.415186
70.942383	16.308594	79.357618
61.564941	12.231445	79.291781
63.603516	11.416016	79.213301
66.457520	15.493164	79.122188
75.019531	25.686035	79.023397
66.865234	28.947754	78.920483
71.757812	33.432617	78.812994
72.165527	37.509766	78.701783
71.757812	32.617187	78.588530
68.088379	26.909180	78.472374
71.757812	27.724609	78.352499
72.980957	17.531738	78.230484
73.388672	21.608887	78.108268
77.465820	26.909180	77.987594
72.573242	18.347168	77.869484
72.573242	2.854004	77.752446
66.457520	8.154297	77.633664
70.942383	18.347168	77.511305
74.611816	20.793457	77.387374
76.242676	23.239746	77.265606
79.504395	17.531738	77.148710
78.688965	29.355469	77.038516
79.504395	26.909180	76.935477
79.096680	24.870605	76.839485
71.757812	20.793457	76.748395
75.019531	20.385742	76.658972
68.903809	20.793457	76.569416
72.573242	16.308594	76.478433
70.942383	14.270020	76.386078
69.311523	14.677734	76.292188
68.496094	11.416016	76.195431
72.165527	2.854004	76.096147
73.388672	10.600586	75.996589
74.611816	15.900879	75.898802
79.504395	13.454590	75.805058
84.804687	21.201172	75.719556
79.096680	15.493164	75.644583
72.573242	15.493164	75.576420
71.757812	24.870605	75.509690
72.980957	27.724609	75.442576
69.311523	16.716309	75.374633
67.680664	9.785156	75.303932
65.642090	13.046875	75.228318
70.942383	15.493164	75.147986
76.650391	28.947754	75.066982
80.727539	24.055176	74.990883
75.427246	22.424316	74.921798
67.680664	13.046875	74.855731
68.496094	13.046875	74.787368
68.496094	17.531738	74.715278
72.573242	12.231445	74.640991
65.642090	17.124023	74.565006
68.496094	14.270020	74.485659
62.788086	21.608887	74.401364
68.496094	29.355469	74.311686
73.388672	47.294922	74.219746
74.611816	46.887207	74.130135
73.388672	41.586914	74.044448
70.942383	34.248047	73.961633
70.942383	26.909180	73.880042
76.242676	18.754883	73.800453
77.465820	18.754883	73.725966
75.019531	10.600586	73.657819
68.903809	4.484863	73.593228
65.234375	2.854004	73.527279
66.457520	0.000000	73.456889
65.642090	4.892578	73.381800
70.534668	15.900879	73.303479
69.719238	23.647461	73.224299
64.826660	28.132324	73.143953
65.642090	27.316895	73.060007
64.418945	40.771484	72.971536
66.457520	37.509766	72.878944
68.088379	33.432617	72.783693
68.903809	36.694336	72.687610
72.573242	30.986328	72.592655
73.796387	23.239746	72.501340
72.980957	13.046875	72.414988
72.980957	8.969727	72.333358
69.311523	0.815430	72.255143
68.088379	8.969727	72.178022
62.788086	12.639160	72.099027
60.341797	18.347168	72.014579
56.264648	15.085449	71.921263
57.080078	15.493164	71.817010
58.303223	22.832031	71.702103
61.157227	25.278320	71.578753
60.341797	24.870605	71.449077
68.903809	25.278320	71.316070
71.757812	20.385742	71.185056
68.088379	21.201172	71.058867
71.757812	19.978027	70.937203
70.534668	20.793457	70.820628
63.603516	11.823730	70.707536
62.380371	10.600586	70.593604
60.749512	12.639160	70.476097
65.642090	9.377441	70.355409
66.457520	2.446289	70.234165
63.195801	-6.523437	70.113377
65.642090	-8.154297	69.992292
68.903809	7.338867	69.872337
72.165527	23.239746	69.756801
72.165527	28.540039	69.648174
79.912109	27.316895	69.549149
79.096680	15.493164	69.463251
71.757812	7.338867	69.389654
61.564941	7.338867	69.321131
56.264648	6.931152	69.248849
64.011230	9.377441	69.169625
68.496094	10.600586	69.087715
71.757812	15.493164	69.008574
72.165527	18.347168	68.935157
77.465820	28.947754	68.869747
77.058105	29.763184	68.814834
73.796387	24.462891	68.770321
75.019531	21.608887	68.734285
70.942383	17.531738	68.705093
75.427246	18.347168	68.681824
71.757812	28.947754	68.664555
71.757812	36.286621	68.652283
65.642090	30.986328	68.642224
64.826660	29.355469	68.630860
63.603516	27.724609	68.615907
62.380371	20.793457	68.596365
63.603516	17.124023	68.571819
63.195801	15.900879	68.542737
64.826660	13.046875	68.509890
63.195801	2.854004	68.473804
59.934082	4.892578	68.433379
64.826660	4.077148	68.387998
64.418945	6.931152	68.339538
68.496094	14.677734	68.290333
69.719238	13.046875	68.242824
71.757812	8.562012	68.199233
71.350098	11.416016	68.160714
75.427246	27.724609	68.128470
66.457520	27.724609	68.101929
62.788086	30.986328	68.076255
62.788086	36.694336	68.047152
67.680664	27.316895	68.015127
71.757812	24.462891	67.983987
64.826660	17.124023	67.955333
60.749512	11.416016	67.925438
61.157227	6.523437	67.890537
63.195801	18.347168	67.850570
63.603516	25.686035	67.807095
68.088379	13.046875	67.762244
67.680664	6.523437	67.718483
69.719238	8.562012	67.677308
69.311523	19.978027	67.639501
59.934082	27.316895	67.602808
59.118652	33.024902	67.561970
61.157227	34.248047	67.514859
61.564941	37.102051	67.462775
68.088379	39.548340	67.408460
64.826660	24.055176	67.354750
68.496094	13.454590	67.302639
65.642090	20.385742	67.252429
64.011230	12.639160	67.203124
59.118652	-1.630859	67.151842
65.642090	0.407715	67.097442
63.603516	9.377441	67.041728
66.865234	13.046875	66.986319
65.642090	19.978027	66.932115
60.749512	19.162598	66.878048
64.011230	19.162598	66.822134
67.272949	28.132324	66.765799
65.642090	44.848633	66.711265
60.749512	40.363770	66.657222
59.118652	37.509766	66.600277
59.118652	32.209473	66.538480
55.449219	19.978027	66.470722
58.303223	19.978027	66.396168
57.080078	21.608887	66.315417
55.856934	16.308594	66.228621
54.633789	15.493164	66.134860
59.526367	22.832031	66.034870
65.234375	24.055176	65.932786
67.272949	20.793457	65.833630
66.865234	30.578613	65.739837
68.496094	30.578613	65.652012
64.826660	30.578613	65.569763
65.234375	36.694336	65.491531
60.749512	44.033203	65.415288
61.157227	39.548340	65.338883
58.710937	47.702637	65.260797
59.934082	43.625488	65.180331
59.934082	35.878906	65.097677
56.672363	24.462891	65.012486
56.264648	20.793457	64.923141
60.341797	13.454590	64.829926
60.749512	4.484863	64.735254
63.603516	10.600586	64.641327
66.457520	17.124023	64.550566
60.749512	16.716309	64.463672
57.080078	18.754883	64.377348
62.788086	26.909180	64.289732
63.603516	30.986328	64.203222
64.011230	37.509766	64.119896
60.749512	43.217773	64.039268
63.603516	44.440918	63.960442
62.788086	41.586914	63.883850
61.157227	48.110352	63.809363
60.749512	38.325195	63.735786
65.234375	26.909180	63.663690
64.418945	23.239746	63.595119
63.195801	19.162598	63.530414
61.564941	11.416016	63.468182
64.826660	23.647461	63.408055
67.272949	28.540039	63.351930
64.826660	26.909180	63.301183
69.719238	24.055176	63.256265
65.642090	24.870605	63.217818
64.418945	26.909180	63.184411
66.865234	26.501465	63.154778
63.603516	31.801758	63.128887
65.642090	26.909180	63.106061
63.195801	27.724609	63.085755
57.080078	24.870605	63.065521
48.925781	35.063477	63.039380
58.710937	42.402344	63.004306
68.496094	37.509766	62.966309
69.311523	18.754883	62.933489
68.903809	2.446289	62.908536
65.642090	1.630859	62.890264
68.496094	4.077148	62.877318
65.234375	14.677734	62.869256
67.680664	23.239746	62.865544
60.749512	25.686035	62.864596
60.749512	25.686035	62.863289
59.526367	32.209473	62.859499
59.934082	42.402344	62.852808
61.564941	39.956055	62.843673
70.534668	35.471191	62.835537
66.865234	35.471191	62.832540
62.380371	22.832031	62.833701
59.934082	17.531738	62.834869
60.749512	16.308594	62.833792
64.011230	14.677734	62.831217
56.672363	10.600586	62.827214
61.157227	16.308594	62.820032
55.856934	11.416016	62.808857
56.672363	14.677734	62.792490
62.380371	21.201172	62.771719
58.303223	21.201172	62.748908
55.856934	17.124023	62.722887
53.002930	19.162598	62.690724
57.487793	29.763184	62.651767
63.603516	28.132324	62.609578
60.749512	32.617187	62.567988
60.749512	24.870605	62.527122
63.603516	16.308594	62.486990
65.642090	16.308594	62.449635
73.388672	14.677734	62.418826
73.388672	5.708008	62.398906
60.749512	6.931152	62.388115
61.564941	17.124023	62.379626
55.856934	17.124023	62.368953
59.934082	12.231445	62.354490
61.564941	22.424316	62.337497
62.380371	29.355469	62.320249
56.672363	23.239746	62.302131
53.818359	22.424316	62.279668
55.041504	20.385742	62.250404
52.187500	18.347168	62.213820
53.002930	20.385742	62.169322
53.410645	25.686035	62.117102
53.002930	28.947754	62.057886
57.080078	35.471191	61.993017
59.118652	29.355469	61.925389
56.672363	22.424316	61.856699
56.672363	14.270020	61.786316
60.341797	22.832031	61.714713
62.788086	25.686035	61.644591
66.865234	11.416016	61.579276
62.788086	15.493164	61.520333
60.341797	8.562012	61.465822
63.603516	13.046875	61.414099
66.865234	31.801758	61.367020
63.603516	33.432617	61.326138
59.118652	21.608887	61.289181
60.749512	21.201172	61.253224
61.564941	20.793457	61.218152
61.564941	15.493164	61.184820
61.157227	17.124023	61.153291
65.234375	22.832031	61.124373
65.642090	18.347168	61.100120
61.564941	13.454590	61.080560
66.865234	12.639160	61.064859
61.564941	6.931152	61.053180
60.749512	4.892578	61.043745
57.487793	6.931152	61.033787
59.526367	10.600586	61.021946
64.826660	17.124023	61.009927
63.603516	22.424316	61.000749
64.826660	28.540039	60.995365
70.534668	22.424316	60.995428
66.865234	16.308594	61.003049
62.380371	26.909180	61.016270
58.303223	19.162598	61.030432
62.380371	23.239746	61.043229
67.680664	25.686035	61.057172
69.311523	20.385742	61.076479
69.311523	17.124023	61.103136
69.311523	11.416016	61.137210
67.272949	7.338867	61.177794
73.388672	-4.077148	61.225085
64.011230	3.669434	61.278945
68.088379	16.716309	61.336769
68.088379	30.986328	61.397996
69.311523	28.947754	61.463800
64.011230	40.363770	61.533154
59.526367	32.209473	61.602184
57.487793	32.209473	61.666547
59.526367	27.724609	61.724674
59.118652	14.677734	61.777215
53.818359	9.785156	61.823295
58.303223	5.300293	61.861448
59.118652	10.600586	61.893168
63.195801	2.854004	61.921393
60.749512	17.531738	61.947964
52.187500	17.124023	61.970465
50.556641	12.231445	61.983488
59.118652	9.377441	61.986591
59.118652	4.484863	61.984292
57.487793	11.416016	61.978657
57.080078	22.424316	61.968879
56.672363	32.209473	61.954408
55.856934	38.732910	61.934936
60.749512	36.694336	61.911459
60.749512	35.471191	61.886539
57.487793	24.055176	61.860697
56.264648	14.270020	61.831967
57.080078	7.746582	61.799224
59.118652	11.416016	61.763328
53.002930	11.823730	61.724137
48.925781	22.424316	61.678094
54.633789	22.424316	61.623308
55.041504	18.754883	61.562268
59.934082	24.870605	61.498321
59.118652	29.763184	61.434128
56.672363	23.647461	61.369982
56.672363	28.947754	61.304450
61.564941	28.132324	61.238306
57.080078	25.686035	61.173038
58.303223	28.540039	61.107927
53.818359	36.694336	61.041320
53.002930	25.686035	60.971105
56.264648	20.385742	60.896770
55.041504	15.085449	60.819759
55.856934	18.754883	60.740701
48.518066	27.724609	60.657952
48.110352	29.355469	60.568017
45.664062	21.201172	60.468532
48.518066	17.124023	60.359392
47.702637	21.201172	60.241791
44.440918	17.124023	60.115700
46.887207	23.239746	59.980353
51.779785	28.947754	59.838023
59.118652	39.140625	59.694319
51.372070	27.316895	59.552558
48.925781	23.239746	59.410018
50.964355	19.162598	59.264099
48.518066	17.531738	59.114893
55.041504	19.978027	58.963669
57.487793	27.316895	58.814106
55.449219	28.947754	58.668748
50.964355	19.162598	58.525951
53.002930	20.793457	58.383394
55.041504	10.600586	58.241642
55.449219	11.008301	58.102523
53.818359	17.531738	57.966385
56.672363	22.424316	57.833235
45.256348	27.316895	57.701150
42.402344	32.209473	57.564223
44.440918	44.440918	57.418855
51.779785	40.363770	57.267829
55.041504	47.294922	57.116810
50.964355	37.102051	56.968525
41.586914	17.531738	56.819259
42.810059	18.347168	56.663535
48.925781	21.201172	56.501597
51.779785	7.338867	56.338179
51.779785	3.669434	56.176627
58.303223	12.639160	56.019489
48.925781	25.278320	55.867695
50.556641	27.724609	55.718376
50.964355	31.801758	55.570079
53.002930	34.655762	55.424090
50.556641	36.694336	55.280995
50.964355	36.286621	55.140169
46.887207	39.140625	55.000159
44.848633	37.509766	54.858503
44.848633	49.333496	54.713285
45.664062	37.509766	54.564496
48.110352	15.085449	54.413525
49.741211	4.077148	54.262558
51.372070	5.708008	54.113681
48.518066	11.008301	53.967491
47.294922	2.854004	53.822629
47.294922	0.000000	53.677792
50.964355	2.854004	53.533776
48.110352	5.708008	53.391873
53.410645	20.385742	53.252992
49.741211	23.647461	53.118213
44.033203	29.763184	52.985458
44.440918	37.509766	52.850919
47.294922	46.479492	52.714282
46.887207	40.363770	52.577285
48.518066	33.024902	52.441053
46.887207	30.986328	52.306015
44.033203	26.909180	52.171081
40.771484	23.239746	52.033603
45.664062	16.716309	51.892664
44.848633	8.969727	51.750066
42.810059	7.746582	51.606357
38.732910	11.008301	51.459382
43.217773	10.600586	51.307944
43.625488	8.154297	51.153796
43.217773	12.231445	50.998509
39.956055	12.231445	50.841333
44.848633	24.462891	50.681984
53.002930	34.248047	50.524582
51.372070	46.887207	50.374347
55.041504	42.402344	50.233360
51.779785	32.617187	50.101993
53.002930	21.201172	49.979520
45.256348	19.162598	49.863418
49.741211	24.055176	49.750948
48.925781	28.947754	49.642173
44.440918	19.570313	49.536610
48.110352	8.969727	49.432618
44.848633	4.077148	49.330128
49.333496	6.931152	49.229608
53.002930	8.562012	49.133539
52.187500	21.201172	49.044710
50.964355	27.724609	48.963101
39.956055	31.394043	48.884723
41.179199	38.325195	48.803728
45.664062	22.424316	48.719248
49.333496	7.746582	48.635172
51.779785	14.677734	48.555319
50.556641	29.763184	48.481508
48.110352	36.694336	48.412900
43.217773	31.394043	48.346441
44.848633	21.201172	48.279318
47.294922	20.793457	48.211847
42.810059	20.793457	48.144648
44.848633	26.909180	48.076603
46.479492	34.248047	48.008142
48.925781	29.763184	47.941391
49.741211	38.732910	47.878272
50.964355	40.363770	47.820076
50.556641	41.179199	47.767394
49.741211	44.848633	47.719922
56.672363	51.779785	47.678760
55.449219	38.732910	47.646772
56.672363	34.248047	47.625074
48.110352	24.870605	47.611295
42.402344	14.270020	47.599415
35.878906	4.892578	47.582398
39.956055	0.407715	47.556639
39.140625	-4.892578	47.522776
39.140625	-6.523437	47.481854
39.956055	8.562012	47.434236
40.363770	1.630859	47.380811
40.363770	-8.969727	47.322327
38.325195	-9.377441	47.258645
38.732910	-19.978027	47.189105
41.586914	-28.132324	47.114474
37.102051	-11.823730	47.035488
36.694336	0.815430	46.950714
39.956055	-8.562012	46.859970
38.325195	-25.278320	46.764797
32.617187	-33.024902	46.663998
24.462891	-39.548340	46.552365
18.347168	-49.333496	46.423115
14.677734	-63.195801	46.270863
12.639160	-69.719238	46.092743
13.454590	-73.796387	45.888292
10.600586	-62.380371	45.658061
15.493164	-59.526367	45.403462
16.308594	-63.603516	45.127900
15.900879	-68.088379	44.834221
12.639160	-84.396973	44.522699
3.669434	-95.812988	44.190291
-0.815430	-99.074707	43.831547
-0.815430	-92.143555	43.443325
1.630859	-93.774414	43.026831
0.815430	-92.958984	42.584857
3.261719	-100.705566	42.119878
-2.446289	-110.490723	41.632996
1.630859	-113.344727	41.124431
3.261719	-117.421875	40.596770
-1.223145	-119.460449	40.052183
-5.708008	-125.576172	39.488903
-7.746582	-119.460449	38.904300
-7.746582	-128.837891	38.297704
-8.969727	-141.069336	37.669892
-9.785156	-148.815918	37.021629
-11.008301	-156.562500	36.353453
-9.377441	-152.893066	35.666538
-12.231445	-148.000488	34.962241
-11.008301	-143.515625	34.241341
-19.570313	-149.223633	33.502991
-17.531738	-152.077637	32.745116
-20.793457	-156.154785	31.967363
-25.686035	-157.785645	31.168985
-28.132324	-170.017090	30.347687
-25.686035	-189.995117	29.503442
-23.647461	-194.887695	28.639356
-24.870605	-202.634277	27.758627
-25.278320	-205.895996	26.862721
-27.316895	-208.342285	25.952196
-19.978027	-197.333984	25.029422
-24.055176	-192.849121	24.098171
-21.608887	-199.372559	23.160235
-22.424316	-202.634277	22.216902
-27.724609	-211.196289	21.268231
-31.801758	-214.865723	20.311389
-41.586914	-221.796875	19.341648
-36.694336	-223.835449	18.355684
-34.655762	-217.719727	17.355804
-29.355469	-216.904297	16.347438
-31.394043	-227.097168	15.334815
-33.432617	-231.174316	14.318977
-32.617187	-233.620605	13.299745
-28.132324	-240.144043	12.279415
-21.608887	-241.367188	11.263393
-14.677734	-248.298340	10.258977
-19.570313	-255.229492	9.270766
-23.239746	-254.821777	8.297352
-31.801758	-261.752930	7.333624
-34.655762	-259.714355	6.373943
-32.617187	-251.560059	5.415923
-33.840332	-245.036621	4.460494
-40.363770	-251.967773	3.506722
-39.140625	-263.383789	2.552107
-36.694336	-263.791504	1.597261
-30.578613	-256.860352	0.646413
-27.316895	-250.744629	-0.294909
-25.278320	-259.714355	-1.222291
-29.763184	-287.846680	-2.134639
-32.617187	-310.678711	-3.034249
-34.655762	-308.640137	-3.923964
-36.694336	-303.339844	-4.805654
-38.325195	-300.485840	-5.680791
-32.617187	-289.069824	-6.548646
-27.724609	-288.254395	-7.404781
-23.647461	-275.207520	-8.243686
-26.501465	-277.246094	-9.062584
-26.909180	-282.954102	-9.862056
-26.501465	-287.846680	-10.642998
-25.686035	-287.846680	-11.405110
-30.986328	-291.923828	-12.149299
-28.540039	-297.224121	-12.877525
-29.355469	-295.593262	-13.590066
-30.986328	-308.232422	-14.287099
-33.840332	-313.532715	-14.970415
-32.617187	-321.687012	-15.641524
-30.986328	-322.094727	-16.299953
-28.540039	-327.395020	-16.943763
-28.540039	-329.433594	-17.571227
-33.432617	-316.386719	-18.183069
-31.801758	-311.901855	-18.781496
-32.617187	-314.755859	-19.367130
-33.432617	-313.940430	-19.940149
-36.694336	-311.086426	-20.502022
-34.655762	-312.717285	-21.054056
-30.986328	-312.717285	-21.594939
-29.355469	-308.232422	-22.121717
-30.578613	-315.163574	-22.632974
-28.540039	-324.133301	-23.128557
-28.540039	-324.541016	-23.607905
-28.540039	-320.056152	-24.070713
-30.986328	-319.648437	-24.517890
-26.909180	-319.648437	-24.949886
-33.432617	-327.802734	-25.367149
-35.471191	-323.725586	-25.772802
-35.471191	-302.116699	-26.169729
-33.432617	-299.670410	-26.557907
-35.878906	-301.301270	-26.936897
-28.132324	-311.086426	-27.305431
-31.394043	-304.970703	-27.661027
-34.655762	-312.717285	-28.004432
-32.617187	-316.794434	-28.337872
-33.432617	-320.871582	-28.661449
-28.540039	-325.356445	-28.973878
-23.647461	-319.240723	-29.271693
-21.201172	-317.609863	-29.550746
-21.608887	-319.240723	-29.809131
-31.801758	-331.879883	-30.049761
-34.655762	-328.210449	-30.279400
-39.956055	-327.802734	-30.503875
-41.586914	-329.433594	-30.727146
-39.548340	-322.910156	-30.950746
-44.440918	-317.202148	-31.175070
-45.256348	-313.532715	-31.402096
-42.402344	-308.232422	-31.632428
-39.956055	-303.747559	-31.863747
-40.363770	-311.494141	-32.093836
-42.810059	-311.086426	-32.322725
-48.518066	-304.970703	-32.553118
-44.440918	-307.009277	-32.787276
-43.625488	-309.047852	-33.023925
-42.402344	-318.017578	-33.260883
-40.771484	-323.317871	-33.496602
-35.471191	-327.395020	-33.728320
-37.509766	-333.103027	-33.953297
-31.801758	-331.472168	-34.169782
-32.209473	-304.562988	-34.375575
-35.063477	-293.962402	-34.570409
-43.625488	-313.532715	-34.758433
-50.556641	-323.725586	-34.946825
-48.518066	-311.086426	-35.140726
-47.294922	-289.069824	-35.340111
-41.586914	-292.739258	-35.541844
-39.956055	-296.408691	-35.741859
-38.732910	-289.885254	-35.937346
-41.586914	-293.554688	-36.127984
-44.440918	-300.485840	-36.315718
-47.294922	-303.747559	-36.503483
-49.333496	-301.301270	-36.693865
-48.518066	-298.854980	-36.888152
-43.625488	-298.854980	-37.084783
-44.033203	-300.485840	-37.280770
-45.256348	-298.854980	-37.475185
-44.440918	-291.923828	-37.668430
-44.440918	-285.400391	-37.860250
-46.479492	-282.138672	-38.050828
-48.518066	-275.615234	-38.241626
-52.187500	-277.246094	-38.435005
-53.410645	-284.584961	-38.633429
-58.303223	-287.846680	-38.839353
-56.264648	-282.138672	-39.054576
-56.672363	-280.915527	-39.278773
-54.633789	-279.284668	-39.510445
-61.564941	-277.653809	-39.749866
-56.264648	-287.031250	-39.998147
-53.818359	-301.708984	-40.253019
-54.633789	-294.777832	-40.511453
-50.556641	-282.954102	-40.771730
-41.586914	-272.353516	-41.029209
-44.033203	-262.568359	-41.278606
-50.964355	-251.967773	-41.520774
-53.002930	-241.367188	-41.760606
-59.118652	-251.967773	-42.002454
-59.526367	-259.306641	-42.249829
-63.195801	-260.937500	-42.505005
-62.788086	-259.714355	-42.769287
-58.303223	-257.675781	-43.041558
-63.603516	-256.860352	-43.320097
-66.457520	-244.221191	-43.606686
-64.826660	-231.989746	-43.903120
-66.865234	-239.328613	-44.209071
-63.195801	-245.852051	-44.523465
-60.341797	-240.959473	-44.843447
-59.934082	-227.912598	-45.165856
-59.118652	-215.273437	-45.489067
-56.264648	-194.887695	-45.811418
-55.041504	-172.463379	-46.130574
-64.826660	-153.300781	-46.447523
-72.165527	-166.755371	-46.768779
-73.796387	-178.986816	-47.100663
-72.165527	-176.540527	-47.444703
-77.873535	-175.725098	-47.801056
-79.096680	-187.956543	-48.171683
-79.096680	-195.703125	-48.557687
-83.989258	-187.141113	-48.959575
-87.658691	-181.025391	-49.379738
-86.843262	-178.579102	-49.819906
-81.542969	-173.278809	-50.277852
-77.873535	-151.262207	-50.748327
-73.796387	-136.584473	-51.225878
-79.096680	-128.837891	-51.707968
-80.727539	-116.198730	-52.196028
-88.066406	-112.529297	-52.693452
-91.735840	-108.452148	-53.204539
-89.697266	-95.812988	-53.731455
-94.589844	-82.358398	-54.274106
-97.443848	-81.542969	-54.833994
-107.636719	-72.980957	-55.415211
-108.859863	-59.526367	-56.022607
-109.675293	-64.418945	-56.657891
-107.636719	-67.272949	-57.319347
-102.744141	-63.603516	-58.002951
-99.890137	-55.449219	-58.703126
-96.628418	-44.848633	-59.414744
-94.997559	-25.686035	-60.133646
-97.851562	-14.677734	-60.857784
-101.520996	-7.746582	-61.588193
-106.821289	3.669434	-62.327893
-112.121582	13.454590	-63.080826
-114.567871	27.724609	-63.850421
-117.421875	38.732910	-64.638541
-117.014160	54.633789	-65.445554
-117.829590	55.856934	-66.270505
-125.168457	59.934082	-67.113964
-123.129883	64.826660	-67.977740
-117.829590	67.272949	-68.859470
-127.207031	82.358398	-69.756557
-123.945312	80.319824	-70.670039
-134.545898	70.942383	-71.601748
-141.069336	71.757812	-72.556306
-143.923340	91.735840	-73.538636
-141.069336	112.121582	-74.548910
-139.438477	121.499023	-75.583623
-135.361328	141.069336	-76.637902
-146.777344	153.708496	-77.710181
-150.854492	158.601074	-78.804516
-151.669922	166.755371	-79.924112
-152.077637	177.763672	-81.068256
-155.339355	181.025391	-82.235917
-151.669922	196.518555	-83.425659
-152.893066	204.672852	-84.634483
-157.785645	207.934570	-85.861218
-156.562500	213.234863	-87.106333
-159.008789	222.612305	-88.368972
-159.008789	216.496582	-89.647978
-154.523926	214.050293	-90.940731
-157.377930	229.951172	-92.243643
-155.339355	232.397461	-93.554669
-158.601074	237.697754	-94.872601
-155.747070	247.075195	-96.196168
-159.416504	254.821777	-97.524047
-158.601074	277.653809	-98.855610
-155.747070	296.816406	-100.189077
-155.747070	300.078125	-101.521247
-160.231934	300.485840	-102.851207
-167.570801	307.416992	-104.181944
-167.570801	319.648437	-105.517059
-169.609375	317.609863	-106.857414
-164.716797	313.532715	-108.201148
-163.493652	320.056152	-109.544340
-161.862793	335.957031	-110.883248
-161.455078	332.695312	-112.215372
-153.300781	329.841309	-113.536837
-154.523926	338.811035	-114.842667
-160.231934	348.188477	-116.132198
-156.970215	370.205078	-117.407277
-161.455078	373.466797	-118.668183
-166.755371	371.020508	-119.917126
-173.278809	374.689941	-121.159011
-172.871094	383.659668	-122.397566
-167.570801	390.183105	-123.631747
-164.716797	395.075684	-124.856814
-169.201660	405.268555	-126.070180
-174.501953	401.191406	-127.274098
-175.725098	409.753418	-128.472016
-165.939941	407.307129	-129.662411
-157.377930	404.453125	-130.837305
-148.815918	397.521973	-131.986848
-159.824219	414.238281	-133.107125
-167.163086	428.508301	-134.203747
-168.386230	443.593750	-135.283702
-168.386230	445.224609	-136.349182
-163.493652	446.040039	-137.398758
-160.639648	450.932617	-138.428729
-157.377930	471.726074	-139.435260
-154.931641	488.850098	-140.415248
-154.931641	495.373535	-141.366725
-155.747070	493.742676	-142.289554
-157.785645	493.742676	-143.185028
-154.931641	486.403809	-144.053982
-154.523926	494.150391	-144.895632
-149.631348	494.150391	-145.708083
-151.669922	498.227539	-146.489661
-156.562500	500.266113	-147.242016
-152.893066	507.197266	-147.967824
-155.339355	500.266113	-148.667524
-158.601074	507.197266	-149.342742
-154.931641	517.797852	-149.995272
-150.446777	527.175293	-150.623205
-152.485352	534.106445	-151.224213
-153.708496	535.737305	-151.799098
-148.408203	537.368164	-152.348225
-149.223633	531.660156	-152.869936
-147.592773	539.814453	-153.363532
-145.146484	540.222168	-153.828483
-137.807617	541.445312	-154.261958
-130.876465	548.376465	-154.658608
-130.876465	544.299316	-155.014116
-136.584473	537.775879	-155.329651
-136.176758	550.415039	-155.609585
-131.691895	555.715332	-155.855344
-131.284180	549.191895	-156.065648
-123.945312	552.045898	-156.238562
-127.207031	548.784180	-156.372494
-123.537598	552.045898	-156.467890
-127.207031	555.715332	-156.526289
-129.245605	562.238770	-156.550806
-131.284180	567.131348	-156.545522
-128.022461	563.869629	-156.512541
-124.353027	565.908203	-156.451011
-119.868164	569.985352	-156.358328
-119.460449	562.238770	-156.232574
-117.014160	560.200195	-156.073345
-113.344727	565.092773	-155.879967
-109.267578	572.431641	-155.650552
-114.975586	576.101074	-155.385365
-117.421875	572.839355	-155.088877
-112.529297	565.500488	-154.764318
-109.267578	572.023926	-154.410516
-106.821289	572.431641	-154.025526
-107.636719	567.131348	-153.609238
-101.520996	575.285645	-153.161687
-104.375000	589.963379	-152.682511
-102.744141	592.001953	-152.173111
-101.928711	592.817383	-151.635070
-97.851562	590.371094	-151.068324
-94.997559	583.032227	-150.471663
-92.551270	577.324219	-149.843857
-93.366699	567.539062	-149.185155
-92.958984	561.423340	-148.497329
-91.735840	567.131348	-147.782099
-87.250977	570.393066	-147.039532
-81.542969	588.740234	-146.267469
-82.766113	587.109375	-145.464202
-81.542969	584.255371	-144.630811
-80.727539	591.594238	-143.769002
-81.542969	594.448242	-142.880432
-77.873535	589.963379	-141.966498
-76.242676	599.748535	-141.027167
-73.388672	604.233398	-140.062008
-77.058105	593.225098	-139.072239
-76.650391	585.478516	-138.061088
-72.980957	583.032227	-137.030372
-69.311523	591.186523	-135.979062
-71.350098	583.847656	-134.906838
-67.680664	572.023926	-133.814920
-66.865234	569.169922	-132.703739
-63.195801	567.539062	-131.572980
-59.118652	578.955078	-130.421506
-53.818359	579.770508	-129.246966
-53.002930	581.809082	-128.047570
-51.372070	600.563965	-126.823456
-56.672363	600.156250	-125.577351
-55.041504	587.924805	-124.313489
-48.925781	580.178223	-123.032932
-42.810059	590.371094	-121.732533
-44.848633	595.263672	-120.410274
-51.779785	589.147949	-119.069820
-58.303223	580.993652	-117.719295
-55.449219	572.839355	-116.365073
-45.664062	573.654785	-115.006387
-44.440918	579.770508	-113.638656
-46.479492	573.654785	-112.261048
-49.333496	566.315918	-110.876960
-46.479492	575.285645	-109.489424
-50.556641	574.470215	-108.100374
-50.964355	578.955078	-106.712840
-46.479492	575.285645	-105.328317
-47.294922	577.731934	-103.946089
-39.548340	569.169922	-102.564719
-30.986328	576.101074	-101.179516
-23.647461	575.285645	-99.783647
-21.201172	574.062500	-98.372315
-14.270020	576.916504	-96.942669
-10.600586	591.594238	-95.491795
-12.639160	581.401367	-94.018965
-10.600586	581.401367	-92.526294
-14.270020	562.238770	-91.016676
-9.785156	548.784180	-89.492682
-13.454590	540.629883	-87.956134
-13.046875	550.415039	-86.409860
-15.493164	559.384766	-84.857316
-11.823730	567.539062	-83.300633
-6.931152	572.431641	-81.739063
-11.008301	567.946777	-80.172006
-11.008301	569.985352	-78.602213
-3.261719	567.539062	-77.030493
0.815430	566.315918	-75.453446
4.077148	564.277344	-73.867934
7.746582	560.607910	-72.272261
7.746582	560.607910	-70.665777
14.677734	547.968750	-69.047876
20.793457	552.045898	-67.415528
17.531738	563.054199	-65.766925
24.462891	571.208496	-64.102822
22.424316	552.045898	-62.423422
24.462891	535.329590	-60.729897
26.501465	529.621582	-59.023595
28.132324	528.806152	-57.304854
28.540039	536.145020	-55.574543
33.024902	543.076172	-53.833185
47.294922	541.853027	-52.076897
51.779785	538.183594	-50.298349
58.710937	549.191895	-48.492491
56.672363	543.076172	-46.658176
49.741211	521.467285	-44.799691
50.964355	514.128418	-42.923940
50.964355	511.274414	-41.034854
64.011230	517.797852	-39.131274
72.573242	499.450684	-37.206753
77.465820	477.026367	-35.255052
82.766113	464.794922	-33.273241
83.581543	468.872070	-31.260483
88.881836	467.648926	-29.217081
91.735840	468.464355	-27.142824
96.220703	470.910645	-25.037218
97.443848	459.902344	-22.900471
95.812988	457.863770	-20.734844
100.297852	455.825195	-18.543282
106.821289	455.825195	-16.325618
117.014160	445.224609	-14.078085
113.752441	434.216309	-11.798185
117.829590	424.838867	-9.487745
118.645020	407.714844	-7.149077
131.691895	402.822266	-4.780992
127.614746	388.959961	-2.381313
126.391602	377.543945	0.046971
124.760742	364.089355	2.497870
127.207031	360.012207	4.967249
135.769043	362.050781	7.454782
143.515625	349.411621	9.964207
152.893066	346.965332	12.500679
152.893066	342.072754	15.067267
157.377930	343.295898	17.663554
156.154785	329.433594	20.287498
152.485352	312.309570	22.934662
153.708496	307.009277	25.599284
161.047363	307.824707	28.279379
170.424805	297.631836	30.978071
177.355957	282.954102	33.700357
178.579102	264.199219	36.448732
174.909668	253.598633	39.220627
178.579102	247.075195	42.011421
192.441406	227.912598	44.821929
189.587402	225.466309	47.655804
192.033691	216.496582	50.511792
191.625977	201.818848	53.386319
203.041992	199.372559	56.278952
206.711426	196.518555	59.192686
210.788574	189.995117	62.129500
209.565430	179.802246	65.088048
215.273437	169.609375	68.066164
219.350586	157.377930	71.063580
214.865723	152.893066	74.078735
208.342285	137.807617	77.104660
204.672852	120.275879	80.132116
208.342285	111.713867	83.155176
213.234863	112.121582	86.173112
216.088867	103.559570	89.187269
214.050293	77.873535	92.196900
220.166016	72.573242	95.200333
227.097168	62.788086	98.199191
231.989746	58.303223	101.197064
231.989746	63.603516	104.195238
225.058594	61.157227	107.190013
220.166016	49.333496	110.173470
224.650879	41.179199	113.139773
226.689453	37.509766	116.088190
232.805176	23.239746	119.020288
234.843750	15.493164	121.938011
236.474609	6.931152	124.842049
234.028320	-1.223145	127.730722
231.989746	-4.077148	130.600298
229.951172	-11.416016	133.446378
225.874023	-36.286621	136.264358
225.874023	-59.526367	139.049873
229.543457	-64.011230	141.801361
231.174316	-73.796387	144.519828
229.951172	-68.088379	147.205414
221.796875	-63.195801	149.854431
221.389160	-72.573242	152.461039
219.758301	-81.542969	155.021637
222.612305	-89.289551	157.535405
219.350586	-87.658691	160.002038
220.166016	-101.520996	162.420330
223.835449	-108.452148	164.790466
223.427734	-121.091309	167.114173
220.981445	-124.353027	169.391220
214.050293	-125.168457	171.618116
213.234863	-139.846191	173.790295
215.273437	-156.970215	175.906240
219.350586	-167.163086	177.968205
217.719727	-167.978516	179.978718
219.350586	-167.978516	181.938640
214.865723	-165.124512	183.847454
208.342285	-169.609375	185.701830
200.595703	-185.510254	187.495645
195.703125	-195.703125	189.222691
195.295410	-197.741699	190.879465
195.295410	-189.179687	192.465911
192.441406	-197.741699	193.982692
191.625977	-205.895996	195.429659
187.956543	-209.973145	196.806312
187.956543	-223.835449	198.112248
189.587402	-232.397461	199.348764
189.587402	-238.105469	200.518564
183.471680	-245.036621	201.622264
179.802246	-259.714355	202.657521
174.909668	-261.345215	203.621531
171.240234	-265.422363	204.512009
165.124512	-264.606934	205.326534
165.124512	-274.799805	206.063513
164.309082	-280.915527	206.723867
169.201660	-266.645508	207.311229
174.501953	-248.706055	207.832038
176.132812	-258.898926	208.293263
167.570801	-291.923828	208.697117
163.085937	-310.678711	209.040528
161.862793	-309.047852	209.320948
161.047363	-316.794434	209.538902
160.231934	-326.987305	209.696026
154.523926	-329.841309	209.792771
152.485352	-327.395020	209.828022
152.485352	-323.725586	209.801958
155.747070	-331.064453	209.717706
151.262207	-337.180176	209.578527
147.592773	-336.364746	209.384593
141.884766	-335.549316	209.133984
143.923340	-346.149902	208.826103
139.438477	-345.742187	208.462263
143.515625	-340.441895	208.044632
142.700195	-337.180176	207.576836
134.953613	-346.149902	207.060248
136.176758	-359.196777	206.493658
132.507324	-363.273926	205.877572
130.468750	-371.020508	205.212737
127.614746	-375.505371	204.499276
127.614746	-379.582520	203.738109
129.653320	-384.475098	202.931981
137.399902	-377.951660	202.086884
140.661621	-376.320801	201.210933
135.769043	-375.913086	200.308910
133.322754	-376.320801	199.380589
132.915039	-368.574219	198.425458
133.322754	-375.913086	197.444987
125.576172	-366.943359	196.439426
124.760742	-366.943359	195.406792
119.052734	-367.351074	194.345433
114.567871	-384.475098	193.253376
120.683594	-384.067383	192.130910
113.752441	-392.221680	190.980806
117.014160	-392.221680	189.804347
113.752441	-385.290527	188.603000
117.421875	-382.844238	187.379262
116.198730	-387.736816	186.136183
121.906738	-387.736816	184.877766
125.168457	-371.428223	183.609564
120.683594	-373.059082	182.335386
117.829590	-373.466797	181.054594
123.537598	-356.342773	179.767654
119.052734	-348.596191	178.477269
113.344727	-357.565918	177.182595
112.121582	-375.097656	175.880687
108.859863	-379.582520	174.570243
107.229004	-381.621094	173.250564
106.413574	-361.235352	171.921526
99.074707	-348.188477	170.582165
103.151855	-349.819336	169.231358
108.044434	-352.673340	167.872542
111.306152	-351.450195	166.512007
107.636719	-361.643066	165.153294
104.782715	-367.758789	163.795927
98.666992	-367.351074	162.437204
97.443848	-372.243652	161.074327
97.443848	-360.827637	159.706669
101.520996	-347.373047	158.336633
99.074707	-341.257324	156.967265
97.851562	-349.411621	155.599440
99.074707	-344.111328	154.233559
97.851562	-335.549316	152.870971
92.551270	-337.180176	151.511244
92.958984	-340.034180	150.152679
92.143555	-340.849609	148.795257
90.512695	-339.626465	147.439605
93.774414	-333.510742	146.086851
96.220703	-335.549316	144.740213
93.774414	-333.103027	143.402330
90.512695	-337.180176	142.072711
90.512695	-327.802734	140.750021
90.920410	-328.210449	139.434588
89.289551	-332.287598	138.127250
90.920410	-331.472168	136.828693
89.289551	-316.386719	135.539884
89.697266	-303.747559	134.261413
95.405273	-296.408691	132.995441
90.920410	-289.477539	131.744659
89.289551	-301.708984	130.508409
90.512695	-305.378418	129.285616
89.289551	-308.232422	128.076850
91.328125	-313.940430	126.882958
92.958984	-305.378418	125.705700
95.812988	-307.416992	124.547700
92.958984	-316.386719	123.410481
88.066406	-317.609863	122.292261
89.289551	-303.747559	121.190356
94.589844	-287.438965	120.105934
99.074707	-291.516113	119.043625
88.474121	-293.554688	118.004508
92.143555	-298.854980	116.985198
91.328125	-294.777832	115.984795
88.881836	-300.485840	115.003388
88.066406	-284.992676	114.039433
85.620117	-279.692383	113.091440
83.173828	-275.207520	112.157537
83.173828	-267.460937	111.236142
81.542969	-274.799805	110.326583
84.804687	-278.061523	109.429281
86.435547	-287.846680	108.546336
89.289551	-283.361816	107.680489
88.474121	-281.730957	106.833588
88.066406	-284.584961	106.005880
79.912109	-284.584961	105.194793
83.581543	-276.022949	104.397000
90.920410	-267.868652	103.614450
86.843262	-263.383789	102.851023
86.435547	-253.598633	102.106334
87.250977	-247.482910	101.379244
86.435547	-247.075195	100.669828
83.173828	-251.967773	99.976959
84.396973	-248.706055	99.299009
85.212402	-254.006348	98.636013
90.512695	-257.675781	97.990134
88.066406	-260.937500	97.363630
89.289551	-260.122070	96.756711
83.581543	-267.868652	96.167626
84.804687	-258.898926	95.593830
84.804687	-253.598633	95.034378
83.581543	-259.714355	94.489206
82.766113	-260.937500	93.957384
83.989258	-259.306641	93.438437
78.688965	-262.976074	92.931363
80.319824	-245.036621	92.434122
89.697266	-232.805176	91.948719
87.250977	-231.989746	91.479840
82.766113	-245.852051	91.027228
81.135254	-249.113770	90.587195
73.388672	-257.268066	90.155563
75.427246	-256.044922	89.728443
79.912109	-251.560059	89.306293
83.989258	-249.929199	88.893294
77.058105	-254.821777	88.490965
75.427246	-261.345215	88.096247
75.427246	-251.152344	87.706531
79.504395	-248.298340	87.322642
74.611816	-242.590332	86.945578
84.804687	-237.290039	86.576604
80.319824	-245.036621	86.218631
78.688965	-239.328613	85.871431
80.727539	-233.620605	85.533381
79.912109	-224.650879	85.204850
75.427246	-227.504883	84.884680
78.688965	-228.728027	84.571116
79.504395	-229.135742	84.264938
86.435547	-236.066895	83.969238
78.688965	-229.543457	83.685673
77.465820	-229.135742	83.411421
72.980957	-233.620605	83.142492
76.242676	-232.805176	82.877107
77.058105	-225.466309	82.616134
74.611816	-223.020020	82.360290
73.388672	-235.251465	82.108218
70.534668	-246.667480	81.857978
68.088379	-260.529785	81.607287
67.680664	-255.229492	81.354286
70.534668	-252.375488	81.099238
75.427246	-236.882324	80.845183
85.212402	-237.290039	80.598232
88.066406	-232.805176	80.365499
83.581543	-223.835449	80.149476
77.465820	-207.934570	79.946419
73.388672	-189.179687	79.750493
64.826660	-181.025391	79.555582
54.633789	-176.132812	79.353599
44.440918	-172.463379	79.134793
38.732910	-156.562500	78.890626
37.509766	-148.000488	78.616506
31.801758	-139.846191	78.310435
32.209473	-134.545898	77.970971
27.316895	-129.653320	77.597414
24.870605	-117.421875	77.188593
24.462891	-101.520996	76.743861
31.801758	-94.997559	76.266381
30.986328	-92.958984	75.761674
19.978027	-85.212402	75.230112
15.085449	-81.542969	74.666187
9.785156	-78.688965	74.065105
5.708008	-68.903809	73.424038
0.815430	-59.934082	72.740653
-4.077148	-53.410645	72.012660
-8.154297	-57.487793	71.237917
-3.261719	-48.925781	70.417216
-5.300293	-36.694336	69.554464
-4.892578	-15.900879	68.652796
0.407715	-2.854004	67.715993
1.630859	5.300293	66.749844
-3.669434	13.046875	65.757338
-4.484863	15.085449	64.738034
-7.338867	24.870605	63.691647
-15.900879	24.462891	62.616540
-16.716309	33.432617	61.509683
-18.754883	45.256348	60.370464
-19.978027	48.110352	59.199941
-19.162598	45.256348	57.999798
-16.716309	49.333496	56.773387
-15.900879	39.956055	55.524902
-11.416016	38.732910	54.258903
-8.969727	41.179199	52.980728
-14.677734	42.402344	51.693235
-14.270020	41.179199	50.395951
-13.046875	47.294922	49.089717
-14.270020	45.664062	47.776742
-15.493164	42.402344	46.458066
-18.754883	55.041504	45.133513
-15.900879	60.341797	43.803457
-11.008301	43.625488	42.471471
-9.785156	46.479492	41.142685
-8.969727	52.595215	39.820491
-11.416016	53.818359	38.506088
-2.854004	57.080078	37.201682
-8.154297	59.118652	35.910652
-4.892578	51.372070	34.634072
-4.077148	51.372070	33.373164
-4.077148	60.749512	32.129826
1.630859	61.157227	30.906284
-0.815430	53.818359	29.705282
-5.708008	57.080078	28.525990
-3.261719	65.642090	27.366092
-2.854004	65.642090	26.226036
-1.223145	60.749512	25.107405
-2.446289	60.749512	24.011047
-4.484863	62.788086	22.936355
-8.969727	67.272949	21.880906
-12.231445	62.788086	20.841188
-4.077148	49.333496	19.816831
-1.223145	47.294922	18.812393
-7.338867	44.440918	17.830061
-1.630859	47.294922	16.868902
-4.484863	43.625488	15.929609
3.669434	42.402344	15.014320
3.261719	41.586914	14.126336
4.484863	39.548340	13.267603
5.708008	48.110352	12.438554
-2.446289	45.664062	11.637536
1.630859	50.556641	10.861231
4.484863	55.041504	10.110082
5.300293	66.457520	9.386524
3.261719	69.311523	8.690711
-2.446289	65.642090	8.019759
-4.892578	58.303223	7.369070
-4.892578	59.526367	6.735624
3.261719	59.526367	6.120806
2.446289	50.964355	5.528488
0.000000	50.964355	4.959343
3.669434	46.479492	4.412383
0.815430	46.887207	3.887714
0.000000	41.586914	3.384127
0.000000	39.548340	2.900017
-1.630859	45.664062	2.434369
-1.630859	51.372070	1.985978
2.854004	61.564941	1.555283
8.154297	80.319824	1.145684
6.931152	76.242676	0.760295
4.484863	62.380371	0.398533
6.931152	59.934082	0.058742
2.854004	55.449219	-0.260144
1.223145	44.440918	-0.560665
0.000000	40.363770	-0.845586
6.931152	43.217773	-1.114567
0.815430	44.440918	-1.366332
2.854004	30.986328	-1.602254
1.630859	35.878906	-1.823660
9.377441	38.732910	-2.029047
12.231445	56.672363	-2.214427
11.008301	71.350098	-2.377299
5.300293	69.311523	-2.519903
4.484863	69.719238	-2.646543
2.854004	73.388672	-2.760166
9.377441	81.542969	-2.860599
4.077148	70.534668	-2.946727
0.000000	68.496094	-3.021251
4.484863	69.719238	-3.086975
2.446289	69.311523	-3.143477
7.338867	60.749512	-3.189726
8.969727	58.710937	-3.223672
13.454590	55.856934	-3.242518
13.046875	50.556641	-3.244251
12.231445	50.964355	-3.228894
14.270020	49.741211	-3.197239
12.639160	53.818359	-3.149628
13.454590	56.672363	-3.086942
18.754883	57.080078	-3.008537
13.454590	59.118652	-2.913602
11.008301	68.088379	-2.805020
7.338867	80.319824	-2.687165
7.746582	82.358398	-2.563044
7.746582	82.358398	-2.433822
11.823730	71.350098	-2.298688
13.454590	60.749512	-2.155481
16.308594	60.749512	-2.002039
15.900879	60.749512	-1.837167
15.493164	55.041504	-1.661127
11.008301	44.033203	-1.476111
10.600586	48.925781	-1.285290
11.008301	45.664062	-1.090412
13.454590	45.256348	-0.891116
16.308594	62.380371	-0.685671
17.531738	66.865234	-0.472106
12.231445	71.350098	-0.251015
15.085449	75.427246	-0.024685
14.677734	80.727539	0.206410
16.308594	71.757812	0.442775
11.008301	59.118652	0.683279
14.677734	51.372070	0.926090
11.416016	47.702637	1.170528
15.085449	56.672363	1.416475
11.823730	60.341797	1.663819
15.085449	53.002930	1.912345
8.562012	46.887207	2.160880
10.600586	55.856934	2.407128
12.639160	56.672363	2.650827
12.231445	56.672363	2.893336
12.639160	60.341797	3.134882
13.046875	66.865234	3.375470
18.347168	67.272949	3.616602
19.162598	72.165527	3.861109
18.754883	71.350098	4.110292
21.608887	66.457520	4.364429
19.570313	69.719238	4.623885
15.493164	64.826660	4.886752
14.677734	59.118652	5.149710
13.454590	56.672363	5.410657
18.754883	51.372070	5.669945
17.531738	54.633789	5.929520
22.424316	49.333496	6.191129
24.462891	55.856934	6.457191
28.540039	57.487793	6.730653
33.024902	51.372070	7.014746
33.024902	51.779785	7.312117
27.316895	59.934082	7.621532
26.501465	63.603516	7.938907
21.201172	60.749512	8.260226
22.424316	61.564941	8.582297
18.754883	61.564941	8.903033
18.754883	68.903809	9.220551
16.716309	67.272949	9.533164
16.716309	53.002930	9.839694
18.754883	44.440918	10.140095
16.716309	45.256348	10.434865
18.754883	42.810059	10.723949
16.308594	44.033203	11.007194
19.570313	47.294922	11.284674
22.424316	41.586914	11.558179
27.724609	48.925781	11.831351
24.055176	56.672363	12.106489
23.647461	53.002930	12.382570
28.132324	51.372070	12.659263
25.278320	55.449219	12.937749
29.763184	60.341797	13.218510
31.394043	60.749512	13.503184
31.394043	66.457520	13.793328
28.540039	67.272949	14.088069
24.462891	60.341797	14.384319
20.793457	53.818359	14.677841
18.754883	46.479492	14.964917
24.462891	35.063477	15.245002
28.132324	33.024902	15.521546
29.355469	35.878906	15.798166
24.462891	38.732910	16.074890
23.647461	48.110352	16.348960
27.316895	63.603516	16.619458
24.462891	65.642090	16.887225
23.647461	63.603516	17.151355
21.201172	63.195801	17.409913
21.201172	64.011230	17.661381
20.385742	56.672363	17.904959
22.832031	57.487793	18.140963
22.832031	58.303223	18.370560
23.647461	60.749512	18.594655
21.201172	54.633789	18.813047
20.385742	55.041504	19.024482
28.132324	52.187500	19.230014
27.724609	49.333496	19.433446
32.209473	55.041504	19.637656
32.617187	48.925781	19.844752
35.063477	58.710937	20.056420
36.286621	75.427246	20.273943
33.024902	78.688965	20.497257
28.540039	68.088379	20.723294
30.578613	63.603516	20.949016
28.540039	61.564941	21.173556
27.316895	70.942383	21.395876
27.724609	84.804687	21.614772
27.316895	79.096680	21.829955
21.201172	68.903809	22.039653
25.278320	51.372070	22.241645
27.724609	46.887207	22.437247
25.278320	43.217773	22.628255
23.239746	48.518066	22.813500
30.986328	59.934082	22.993370
35.471191	59.118652	23.172630
29.355469	53.818359	23.353906
34.248047	61.564941	23.536165
42.810059	67.680664	23.722384
41.586914	73.388672	23.917652
39.956055	70.942383	24.122530
28.132324	61.157227	24.332084
24.870605	56.672363	24.538384
25.278320	61.564941	24.736649
23.647461	59.934082	24.925964
24.462891	53.002930	25.105999
26.501465	48.518066	25.277522
27.316895	48.925781	25.442237
28.132324	46.887207	25.601459
30.578613	49.741211	25.756552
28.132324	53.818359	25.908400
28.132324	50.556641	26.056346
27.316895	51.779785	26.199556
30.578613	52.595215	26.338521
31.801758	56.264648	26.475109
35.471191	60.749512	26.611747
34.248047	62.788086	26.750217
38.732910	61.564941	26.891791
28.132324	59.118652	27.035428
37.509766	65.234375	27.178958
32.209473	69.719238	27.322983
32.617187	69.311523	27.467115
33.024902	64.826660	27.610128
24.462891	70.534668	27.749994
27.316895	61.157227	27.883067
30.578613	45.256348	28.009622
29.763184	44.440918	28.132071
33.024902	41.179199	28.251756
28.540039	46.479492	28.368998
29.355469	50.556641	28.482499
30.578613	53.818359	28.591882
29.355469	53.410645	28.697753
26.909180	59.118652	28.799196
28.132324	68.088379	28.895021
22.832031	64.826660	28.983988
24.462891	56.672363	29.064280
22.832031	59.118652	29.135243
26.501465	62.380371	29.197759
31.394043	69.311523	29.254930
38.325195	63.195801	29.312294
37.102051	53.002930	29.374387
34.248047	42.402344	29.441357
34.248047	46.887207	29.511094
38.325195	48.518066	29.583718
34.248047	53.002930	29.660095
32.209473	60.749512	29.738367
31.801758	56.672363	29.816118
31.394043	54.633789	29.892431
32.209473	53.410645	29.967186
32.617187	59.118652	30.040802
32.617187	58.303223	30.113683
35.878906	55.856934	30.186748
39.140625	59.526367	30.262483
35.878906	59.934082	30.342402
35.878906	59.118652	30.425374
32.617187	58.303223	30.509459
28.540039	44.440918	30.591735
24.870605	39.548340	30.668234
28.132324	33.024902	30.736995
22.424316	31.801758	30.797547
23.647461	39.548340	30.848378
32.209473	52.187500	30.891267
26.501465	49.741211	30.929849
26.501465	45.256348	30.963529
27.724609	47.702637	30.991316
31.801758	55.041504	31.015160
28.540039	51.372070	31.036823
32.617187	58.303223	31.056809
33.432617	55.856934	31.076672
34.248047	45.256348	31.098110
33.432617	43.217773	31.121458
34.248047	39.140625	31.146605
34.655762	39.548340	31.173764
32.209473	33.024902	31.202602
32.209473	35.878906	31.231833
35.471191	38.325195	31.261624
29.355469	41.586914	31.292025
29.763184	43.625488	31.320727
28.132324	44.848633	31.345957
24.462891	55.041504	31.366131
29.355469	62.788086	31.380386
33.024902	57.080078	31.391546
31.801758	56.672363	31.402632
35.471191	63.603516	31.414920
37.102051	55.041504	31.430377
31.801758	46.887207	31.449273
34.248047	45.256348	31.469719
28.540039	30.578613	31.490015
32.209473	27.724609	31.508754
37.102051	33.024902	31.527703
40.771484	45.256348	31.551329
36.286621	41.179199	31.581430
39.548340	42.402344	31.617146
45.664062	40.363770	31.660327
38.325195	38.732910	31.712731
33.024902	43.625488	31.770245
29.763184	50.556641	31.827006
31.394043	53.818359	31.880312
26.909180	48.518066	31.929085
27.724609	47.702637	31.971765
18.754883	44.848633	32.005478
27.724609	36.694336	32.028453
30.578613	39.548340	32.044258
33.432617	38.325195	32.057807
35.063477	27.724609	32.071865
35.471191	29.355469	32.088108
39.140625	33.432617	32.108027
34.655762	35.878906	32.132291
30.578613	40.771484	32.158214
24.055176	44.440918	32.180659
24.055176	39.956055	32.195264
26.909180	39.548340	32.201403
28.947754	44.033203	32.201489
31.394043	50.556641	32.198259
28.132324	48.110352	32.192831
30.578613	48.518066	32.184882
32.209473	41.586914	32.175391
35.471191	35.471191	32.166795
39.956055	40.771484	32.162381
43.217773	60.749512	32.166036
46.887207	55.856934	32.181244
39.956055	39.548340	32.208431
28.540039	28.947754	32.241349
21.201172	19.162598	32.269957
28.132324	21.201172	32.289387
35.063477	33.432617	32.303568
34.248047	38.732910	32.317971
29.355469	42.402344	32.332679
29.355469	41.179199	32.344878
28.132324	35.471191	32.353061
27.316895	35.878906	32.356546
27.724609	44.848633	32.354898
32.209473	42.810059	32.349531
32.617187	32.617187	32.343189
31.394043	33.432617	32.336994
29.355469	35.878906	32.329874
29.763184	35.471191	32.320595
32.209473	28.540039	32.309584
27.724609	26.909180	32.297146
24.055176	22.424316	32.280681
33.024902	26.909180	32.259640
37.102051	44.440918	32.239071
37.102051	53.002930	32.223473
38.732910	62.380371	32.214136
37.102051	57.080078	32.211215
29.763184	39.140625	32.212066
26.909180	30.986328	32.211484
18.754883	33.432617	32.203964
24.462891	33.432617	32.186295
23.647461	24.870605	32.159597
28.540039	27.316895	32.126664
29.355469	33.432617	32.090384
35.063477	29.763184	32.054160
34.248047	26.909180	32.021025
42.402344	34.248047	31.994088
42.402344	33.024902	31.977167
41.586914	31.801758	31.971752
40.363770	34.655762	31.976578
34.655762	38.732910	31.988821
35.063477	36.286621	32.004917
34.655762	38.732910	32.023284
34.655762	44.440918	32.043692
33.432617	37.509766	32.065598
36.694336	44.848633	32.089126
39.548340	44.440918	32.116320
34.248047	43.625488	32.147949
37.509766	48.110352	32.182601
39.140625	39.548340	32.220851
39.956055	39.548340	32.264425
48.925781	34.655762	32.316248
47.294922	31.801758	32.380391
40.363770	30.986328	32.455907
37.102051	37.102051	32.537273
37.509766	39.548340	32.620714
44.848633	45.256348	32.707331
44.440918	42.402344	32.800745
41.179199	42.402344	32.901408
43.217773	42.402344	33.007600
43.217773	43.217773	33.119173
45.256348	43.217773	33.236836
41.179199	41.179199	33.360191
35.063477	42.402344	33.485637
36.286621	43.625488	33.608983
40.771484	34.655762	33.730411
44.033203	35.471191	33.853414
45.256348	30.578613	33.981004
48.110352	30.986328	34.115088
43.217773	29.763184	34.255767
39.548340	33.432617	34.399809
41.586914	41.586914	34.544234
42.402344	44.440918	34.689193
35.063477	41.179199	34.833546
39.140625	40.771484	34.974598
40.771484	47.294922	35.112994
43.217773	53.818359	35.251278
43.217773	55.856934	35.391024
46.479492	55.449219	35.533519
43.625488	47.702637	35.679451
44.848633	39.140625	35.828191
36.286621	34.248047	35.977099
39.956055	33.432617	36.122798
38.325195	31.801758	36.264530
44.033203	33.432617	36.403933
47.294922	26.909180	36.544392
45.664062	28.540039	36.688498
48.518066	34.655762	36.836683
45.664062	40.771484	36.988928
47.294922	40.363770	37.144568
47.702637	45.256348	37.303499
47.294922	44.848633	37.465942
42.810059	40.771484	37.630280
37.509766	44.848633	37.792400
43.217773	49.741211	37.949769
43.217773	51.779785	38.104042
48.110352	56.672363	38.257983
46.887207	63.603516	38.413695
49.741211	52.595215	38.572325
45.256348	40.363770	38.733575
48.110352	38.732910	38.896299
49.333496	40.363770	39.060904
47.294922	38.732910	39.227986
51.779785	44.440918	39.397688
47.702637	44.440918	39.570461
48.110352	41.179199	39.745128
49.741211	46.887207	39.920991
48.518066	59.526367	40.098455
44.848633	52.187500	40.276081
45.664062	48.110352	40.451640
46.479492	38.732910	40.624722
47.702637	41.179199	40.796220
50.964355	42.402344	40.967738
55.041504	50.556641	41.142203
54.633789	43.625488	41.322189
44.033203	36.286621	41.505329
47.702637	31.801758	41.686574
47.294922	28.132324	41.864857
48.925781	31.801758	42.041303
46.887207	36.694336	42.216023
41.179199	39.140625	42.386770
42.402344	42.810059	42.550332
42.810059	53.818359	42.706112
37.509766	57.080078	42.853444
34.655762	44.440918	42.989127
33.024902	44.848633	43.110226
37.509766	35.878906	43.216848
44.848633	35.878906	43.313391
41.179199	24.055176	43.404280
42.810059	22.424316	43.490106
39.140625	19.978027	43.569935
37.509766	21.201172	43.642029
41.179199	32.209473	43.705804
44.848633	31.801758	43.764035
45.256348	46.479492	43.819910
49.333496	52.187500	43.875726
46.887207	44.440918	43.933034
50.556641	32.617187	43.992456
45.256348	46.479492	44.053727
46.887207	57.080078	44.115305
44.033203	53.818359	44.175828
47.294922	45.256348	44.235064
43.625488	35.063477	44.293011
42.810059	22.424316	44.348381
47.294922	34.248047	44.401017
57.080078	39.956055	44.455701
56.672363	27.316895	44.518495
49.333496	12.639160	44.589393
52.187500	14.677734	44.664742
53.818359	14.677734	44.744259
53.818359	24.870605	44.829279
55.856934	37.509766	44.920427
56.264648	39.956055	45.018508
55.449219	39.548340	45.123641
56.264648	47.702637	45.235287
56.672363	47.294922	45.353357
58.303223	44.033203	45.478291
53.002930	50.556641	45.609219
48.925781	51.372070	45.742304
52.595215	54.633789	45.874739
53.002930	48.925781	46.007377
50.556641	31.801758	46.140606
48.110352	31.394043	46.272438
48.518066	31.801758	46.400977
52.595215	36.694336	46.526880
56.672363	39.548340	46.653454
55.041504	59.118652	46.783321
49.333496	65.642090	46.914909
52.595215	56.264648	47.045432
53.002930	50.556641	47.175122
56.672363	51.372070	47.305916
55.856934	53.818359	47.439446
64.418945	59.118652	47.578234
59.118652	52.187500	47.724787
55.856934	43.625488	47.877207
53.818359	34.655762	48.031426
52.595215	30.986328	48.184952
53.410645	17.531738	48.336690
53.002930	2.854004	48.486563
51.779785	-4.077148	48.634176
49.741211	4.484863	48.778191
43.625488	-5.300293	48.915621
42.810059	-12.231445	49.042657
41.179199	-14.677734	49.157174
43.217773	-11.823730	49.259082
43.625488	-11.008301	49.349596
39.140625	-12.639160	49.428709
39.956055	-16.716309	49.494819
41.179199	-38.732910	49.548018
44.440918	-35.063477	49.590548
41.179199	-37.509766	49.624026
38.325195	-40.771484	49.647220
38.325195	-47.702637	49.658217
34.655762	-58.303223	49.655843
33.024902	-72.573242	49.638351
35.063477	-86.843262	49.605159
35.471191	-82.766113	49.557763
34.248047	-97.036133	49.497285
25.278320	-91.735840	49.421488
25.686035	-84.396973	49.326222
24.055176	-97.036133	49.209897
27.724609	-111.306152	49.073803
31.394043	-107.636719	48.921444
25.686035	-97.851562	48.755109
30.578613	-104.782715	48.574856
24.462891	-115.383301	48.380969
26.909180	-123.945312	48.172985
26.501465	-129.653320	47.951333
28.132324	-128.430176	47.717722
28.132324	-132.915039	47.473689
27.316895	-149.631348	47.220176
28.947754	-161.862793	46.957881
24.462891	-166.755371	46.686940
17.531738	-167.163086	46.404282
18.347168	-161.047363	46.106130
20.793457	-164.309082	45.792748
23.647461	-167.570801	45.467406
19.570313	-177.355957	45.132058
17.531738	-173.278809	44.785583
17.531738	-170.832520	44.426706
21.201172	-174.501953	44.056795
23.239746	-177.355957	43.679202
25.278320	-175.725098	43.297243
25.278320	-179.394531	42.913122
27.316895	-193.664551	42.528414
23.239746	-211.196289	42.143547
29.355469	-216.904297	41.758935
30.578613	-217.719727	41.377433
23.239746	-212.827148	40.999622
19.978027	-219.758301	40.621341
23.647461	-219.350586	40.240331
29.355469	-219.758301	39.859687
32.209473	-215.273437	39.484504
36.286621	-222.612305	39.118999
39.956055	-227.912598	38.766973
38.325195	-224.650879	38.430756
31.394043	-223.835449	38.108271
29.355469	-207.119141	37.794629
22.424316	-216.088867	37.485047
16.308594	-231.989746	37.173882
17.531738	-234.843750	36.856821
16.308594	-242.590332	36.533178
22.832031	-255.229492	36.204985
27.316895	-265.830078	35.877077
26.501465	-259.714355	35.553640
28.947754	-259.714355	35.236204
28.132324	-262.976074	34.925689
29.763184	-260.529785	34.622748
31.801758	-258.898926	34.328536
33.024902	-256.044922	34.044787
33.024902	-256.044922	33.772502
30.578613	-261.345215	33.511127
28.540039	-270.722656	33.258622
30.986328	-275.207520	33.013779
29.355469	-269.907227	32.776829
26.501465	-271.945801	32.546701
34.248047	-284.992676	32.323432
39.548340	-300.078125	32.111661
38.325195	-298.039551	31.915586
34.248047	-287.438965	31.734382
38.325195	-277.246094	31.566171
33.432617	-283.769531	31.410329
29.355469	-288.662109	31.263888
26.501465	-293.554688	31.122398
30.578613	-288.662109	30.984286
34.248047	-287.031250	30.851898
35.063477	-283.769531	30.728328
34.655762	-290.700684	30.614592
32.617187	-304.970703	30.509827
35.878906	-298.039551	30.413416
44.033203	-291.923828	30.328402
37.102051	-309.863281	30.257677
38.325195	-322.910156	30.199492
41.586914	-324.948730	30.153016
38.732910	-322.094727	30.119055
41.179199	-322.094727	30.097075
41.179199	-304.970703	30.087094
42.402344	-303.339844	30.089541
42.402344	-312.717285	30.104494
45.256348	-323.725586	30.132440
35.471191	-322.910156	30.171692
38.732910	-318.833008	30.218161
35.471191	-312.717285	30.269758
31.801758	-313.125000	30.324374
39.956055	-321.279297	30.381175
42.402344	-315.163574	30.443962
43.217773	-315.571289	30.516042
40.771484	-319.648437	30.597345
39.140625	-311.901855	30.685868
38.325195	-309.047852	30.779479
38.732910	-315.163574	30.877097
37.102051	-316.794434	30.978011
41.179199	-317.609863	31.082286
36.694336	-320.871582	31.190197
39.956055	-322.910156	31.301036
39.548340	-319.648437	31.414983
36.694336	-311.086426	31.531670
32.209473	-305.786133	31.648066
36.286621	-305.786133	31.762026
36.694336	-301.301270	31.874613
33.024902	-305.786133	31.986092
26.909180	-304.970703	32.092968
28.132324	-312.717285	32.191482
31.394043	-305.786133	32.281802
39.140625	-297.631836	32.368274
39.140625	-304.155273	32.455910
39.956055	-320.056152	32.546812
29.763184	-323.725586	32.638489
24.055176	-319.648437	32.724169
25.278320	-320.463867	32.798678
30.578613	-315.163574	32.862979
25.278320	-308.232422	32.919182
28.947754	-311.901855	32.967166
29.355469	-301.301270	33.007895
30.578613	-288.662109	33.043155
27.316895	-284.992676	33.073050
24.870605	-300.078125	33.095755
22.832031	-302.116699	33.108897
29.763184	-305.786133	33.113000
27.724609	-308.232422	33.111042
24.462891	-307.824707	33.103191
22.424316	-301.301270	33.086939
27.724609	-309.455566	33.062147
25.686035	-320.871582	33.030942
32.617187	-311.901855	32.995789
41.586914	-309.863281	32.962368
48.925781	-300.485840	32.939094
43.217773	-300.485840	32.930246
43.217773	-299.262695	32.934108
35.471191	-304.970703	32.946566
34.655762	-297.631836	32.962933
24.055176	-292.331543	32.977766
24.870605	-287.031250	32.985551
24.462891	-287.438965	32.984134
29.355469	-297.224121	32.975221
27.316895	-298.854980	32.961087
28.132324	-298.039551	32.942413
26.501465	-298.854980	32.918888
27.724609	-307.009277	32.890435
27.316895	-311.086426	32.857416
27.316895	-304.562988	32.820178
29.763184	-305.378418	32.779488
34.248047	-304.155273	32.738007
36.286621	-300.485840	32.699351
45.256348	-284.584961	32.668036
42.810059	-284.584961	32.648368
39.140625	-277.653809	32.639948
30.986328	-271.130371	32.637561
23.647461	-273.168945	32.633762
25.686035	-268.276367	32.623156
24.055176	-265.830078	32.604778
22.424316	-269.907227	32.578249
21.201172	-273.984375	32.542360
21.201172	-291.108398	32.496501
19.978027	-296.408691	32.440531
19.162598	-288.662109	32.374109
26.501465	-273.984375	32.298957
28.947754	-265.014648	32.219833
32.209473	-251.967773	32.141071
27.316895	-248.298340	32.063808
21.201172	-259.306641	31.984736
19.570313	-269.499512	31.899095
22.424316	-261.345215	31.805558
24.462891	-244.221191	31.706189
20.385742	-254.821777	31.602104
19.570313	-252.783203	31.491807
23.239746	-264.606934	31.375160
24.055176	-262.976074	31.254500
28.132324	-256.860352	31.132600
27.316895	-254.821777	31.011786
23.647461	-255.229492	30.891815
22.832031	-252.783203	30.770417
19.978027	-248.298340	30.645644
22.424316	-251.560059	30.516708
25.278320	-249.113770	30.385218
16.716309	-240.551758	30.251322
15.493164	-243.405762	30.111199
17.124023	-245.852051	29.962816
21.608887	-246.667480	29.808415
24.055176	-236.474609	29.651860
25.686035	-231.582031	29.496304
27.724609	-229.543457	29.343900
28.947754	-234.843750	29.196487
23.647461	-228.320312	29.053778
26.909180	-223.020020	28.914104
29.355469	-216.088867	28.778439
28.132324	-217.312012	28.648564
28.132324	-221.389160	28.524353
33.432617	-220.166016	28.406750
37.509766	-228.728027	28.299436
28.540039	-221.796875	28.203236
25.686035	-220.166016	28.113355
26.501465	-217.312012	28.025960
34.248047	-223.020020	27.942745
32.209473	-232.805176	27.867355
34.248047	-218.942871	27.801015
29.355469	-203.857422	27.742634
29.355469	-197.333984	27.689879
33.024902	-197.333984	27.642229
36.286621	-196.518555	27.602286
29.355469	-208.342285	27.570601
23.647461	-217.719727	27.542549
20.385742	-220.166016	27.512317
18.754883	-218.942871	27.476396
16.716309	-217.719727	27.432830
16.308594	-209.973145	27.380408
21.201172	-202.634277	27.320119
24.870605	-198.964844	27.255811
23.647461	-202.634277	27.190626
26.501465	-190.810547	27.125742
29.355469	-169.609375	27.063143
35.063477	-167.978516	27.006539
30.986328	-176.540527	26.958395
33.024902	-172.463379	26.918271
27.316895	-166.755371	26.884348
27.316895	-161.047363	26.853915
23.647461	-163.901367	26.824384
25.278320	-167.163086	26.794246
20.793457	-163.901367	26.762273
22.424316	-159.824219	26.727085
23.239746	-164.309082	26.688755
25.278320	-175.725098	26.648860
20.385742	-173.278809	26.607511
21.201172	-168.386230	26.562998
20.385742	-161.862793	26.514440
18.754883	-157.377930	26.461428
19.978027	-155.747070	26.403470
18.754883	-161.862793	26.340745
16.716309	-167.163086	26.272677
20.385742	-155.339355	26.199151
17.124023	-153.708496	26.121028
14.270020	-158.601074	26.037098
14.677734	-148.815918	25.945464
15.493164	-142.700195	25.846250
17.531738	-141.884766	25.740974
17.124023	-137.399902	25.631200
23.647461	-112.937012	25.519282
23.647461	-99.890137	25.408756
15.085449	-103.559570	25.299137
9.377441	-109.675293	25.184504
7.746582	-105.598145	25.059527
7.338867	-105.190430	24.922343
4.892578	-90.512695	24.772363
7.338867	-76.242676	24.609576
